# Stress in units of bar (10^5 Pa)
# z	Sxx	Sxy	Sxz	Syx	Syy	Syz	Szx	Szy	Szz
0.0	13.616556360364093	72.95065162679253	11.096563141026298	72.95065162679192	-39.43083824574803	150.1595579876423	11.096563141026131	150.1595579876428	108.31422170442794	
0.05299098428903706	23.655332556876488	62.64969995417033	29.11305746613595	62.64969995416995	15.236115142670556	109.06034871834886	29.113057466135793	109.06034871834925	121.43320235709152	
0.10598196857807413	33.3381587595302	50.71835132182337	47.545006431229275	50.718351321823164	65.84990350659629	68.53897306904986	47.5450064312291	68.53897306905006	134.98508712653512	
0.1589729528671112	38.59838846139951	37.061070379573856	66.30452903498102	37.06107037957376	106.56990380094884	34.194023983570446	66.30452903498085	34.194023983570425	149.1967423009929	
0.21196393715614825	36.4223616325551	20.037832110225455	85.84361838398509	20.03783211022534	133.62771028710188	9.763175885217407	85.84361838398493	9.763175885217173	164.02252718394453	
0.2649549214451853	26.16814529305372	-3.0325679347134553	106.78983075624633	-3.0325679347136543	146.81794354549942	-3.664463369723899	106.78983075624622	-3.664463369724311	179.13862957148427	
0.3179459057342224	9.907929287608269	-34.37285459909633	129.23146845488645	-34.37285459909671	149.2672373268142	-7.647150249641339	129.2314684548864	-7.647150249641898	193.99615757331284	
0.37093689002325947	-8.920975821849154	-73.71001541114912	152.01958615332705	-73.71001541114967	145.11257473262185	-5.602639292247025	152.01958615332705	-5.602639292247673	207.88732541086398	
0.4239278743122965	-26.95315981220451	-117.36696647899007	172.57782269550808	-117.36696647899088	137.55050207178394	-1.5731821484572155	172.57782269550802	-1.5731821484578852	220.03627063861592	
0.47691885860133354	-41.68277464511317	-159.38026520074786	187.49831049709275	-159.3802652007489	128.3809494913885	1.0013961152513495	187.49831049709258	1.0013961152507207	229.68479545868107	
0.5299098428903706	-50.882244679004174	-194.06000971481345	193.8383607022254	-194.06000971481473	118.96248902305155	0.06056299169646162	193.83836070222515	0.06056299169592716	236.13298641855715	
0.5829008271794077	-52.05187238648207	-218.63312874816842	190.54184565372043	-218.6331287481699	110.82290222433888	-4.8984670866801805	190.54184565372003	-4.898467086680591	238.76508879469665	
0.6358918114684448	-43.09890834773887	-234.1920348379847	179.2227740888955	-234.19203483798623	105.05389332633956	-13.062420440526203	179.222774088895	-13.062420440526484	237.15857241848647	
0.6888827957574818	-24.044579239894716	-244.46892091272105	163.76108463001867	-244.46892091272255	100.92903655207807	-22.717425531170374	163.7610846300182	-22.717425531170555	231.32515490502172	
0.7418737800465189	1.4226778009098844	-253.2890723269243	148.81409299477644	-253.2890723269258	95.1910090798858	-31.689938818031017	148.81409299477602	-31.689938818031127	222.08895601189283	
0.794864764335556	27.057581945765378	-262.0544483394991	137.97302178742876	-262.05444833950025	83.78622008757006	-37.84999935816397	137.97302178742848	-37.84999935816404	211.3545331938915	
0.847855748624593	46.73742395709958	-268.83552266761626	132.42473785970387	-268.8355226676173	64.45637868654129	-39.73254407162821	132.42473785970384	-39.732544071628254	202.048042022843	
0.90084673291363	57.555231204456916	-269.18596130863335	130.68349948327733	-269.18596130863415	38.746826269848285	-37.17250104183581	130.68349948327756	-37.17250104183583	197.61482608722318	
0.9538377172026671	60.849663729304304	-258.033317943197	129.43215990241544	-258.0333179431977	12.006172433038103	-31.617468862347007	129.43215990241595	-31.61746886234699	201.14773124296124	
1.0068287014917041	59.92314254343192	-232.06438776239617	125.0503511348423	-232.0643877623967	-8.775941108722144	-25.776284858079777	125.05035113484308	-25.77628485807971	214.45237468710462	
1.0598196857807411	56.833513811897795	-191.34341596477392	115.25049061887917	-191.34341596477435	-17.617693165292508	-22.609752269277784	115.25049061888015	-22.609752269277656	237.35494014736662	
1.1128106700697784	50.13872457637972	-139.80670450939593	100.19521141422825	-139.80670450939618	-11.614994623561799	-24.164951732615528	100.1952114142293	-24.164951732615382	267.5246907236073	
1.1658016543588154	35.86981742852451	-84.18174152900554	82.66259740697495	-84.18174152900575	8.56955705085242	-30.857473879273506	82.66259740697602	-30.857473879273343	300.81894829494195	
1.2187926386478525	10.741306803927998	-31.756434967179423	67.06529383919818	-31.75643496717956	39.03344675410852	-41.49690770308283	67.0652938391992	-41.4969077030827	332.08171382102023	
1.2717836229368895	-24.57463840180145	12.204933425117467	57.77300478724647	12.204933425117332	72.99465764133633	-53.881394558096844	57.77300478724741	-53.881394558096744	356.10554494121357	
1.3247746072259265	-64.28233622496697	45.83392728388375	57.49613202131765	45.83392728388357	101.57921298456257	-65.33488527399452	57.49613202131853	-65.33488527399449	368.594510482794	
1.3777655915149636	-99.38638009520719	69.96913354166315	66.5766072096784	69.96913354166293	116.02771094431836	-72.83496979423384	66.5766072096792	-72.8349697942339	367.13401442441887	
1.4307565758040006	-120.59654848461898	86.06803811881008	83.46240539301924	86.0680381188098	111.27390308691427	-73.06777666874278	83.46240539301996	-73.0677766687429	352.1559354947811	
1.4837475600930379	-121.08001450476067	93.92151176968207	105.8267980919406	93.92151176968177	89.32160544763522	-62.86739614802346	105.82679809194127	-62.86739614802363	327.73489915171115	
1.536738544382075	-97.16859154632029	91.51200353372906	131.30030998596217	91.5120035337288	60.184478424588	-40.27269460686597	131.30030998596277	-40.27269460686613	301.6028471464639	
1.589729528671112	-48.4668488196744	76.95019853358654	157.21159011391742	76.95019853358632	37.8839854237369	-5.745839034690089	157.21159011391796	-5.7458390346902455	283.73258803655614	
1.642720512960149	21.709191980373816	51.526700009858146	179.77042384136558	51.52670000985802	34.6780233332325	37.24373050486442	179.77042384136612	37.24373050486431	283.18021099313137	
1.695711497249186	105.37181987825312	21.29560237402692	193.82048872719434	21.29560237402692	55.64363216129322	82.75217339327267	193.8204887271948	82.75217339327261	304.20304056885044	
1.748702481538223	190.41481105278572	-4.2704756854893375	194.1401413634244	-4.270475685489153	96.85398834489168	123.899562756845	194.14014136342485	123.899562756845	343.39042989854045	
1.80169346582726	264.51631882307146	-16.46411132499631	178.0337729055675	-16.464111324995997	151.197926497874	154.8147929066066	178.03377290556787	154.81479290660667	389.6188917729621	
1.8546844501162971	320.7541897673359	-10.738529962650901	147.61791885160437	-10.738529962650432	207.45077474522537	172.2958465795379	147.61791885160466	172.29584657953808	427.4165899763295	
1.9076754344053342	362.02124305041036	10.39204724289619	109.92509808670079	10.392047242896766	259.9090747049689	176.62468845735432	109.92509808670103	176.62468845735458	442.51325568680033	
1.9606664186943714	398.8759375043526	39.514240275367655	74.30063102553041	39.51424027536834	305.1115088692503	171.37534958599917	74.30063102553058	171.37534958599952	427.21615555848564	
2.0136574029834082	442.8075255985639	67.91928670545391	48.29417295260399	67.91928670545454	342.8866205575057	162.14253980377688	48.29417295260407	162.14253980377734	383.2591454335276	
2.0666483872724455	498.8570895345709	89.04868312670662	34.46393265014075	89.04868312670713	377.1295151758834	154.7161193157279	34.46393265014079	154.71611931572838	320.99436150486906	
2.1196393715614823	562.9982384897023	99.03015865751071	29.868758512313097	99.03015865751108	418.4794838407495	153.26724212771634	29.868758512313132	153.26724212771688	255.54945234283983	
2.1726303558505196	626.3982331590353	95.35454293472569	28.333985510385595	95.35454293472603	484.9555802495945	159.29969143934065	28.333985510385645	159.29969143934113	201.95190073044182	
2.225621340139557	681.2738033010456	76.0586556531243	23.829698842913295	76.05865565312442	594.7903886078894	171.57854216090166	23.829698842913388	171.57854216090206	171.45779278752758	
2.2786123244285936	723.4590362235627	41.6446316085715	12.903155055034617	41.644631608571785	750.6268000540065	186.80702715897712	12.90315505503476	186.80702715897746	170.11735653660608	
2.331603308717631	751.2412001251452	-1.4493023275722408	-4.90021172695839	-1.449302327572127	925.8842330492489	200.63398971878493	-4.90021172695818	200.63398971878513	198.8941506419526	
2.3845942930066677	761.8470199355692	-40.48484076283046	-28.18312139673168	-40.484840762830345	1067.2909528167006	208.80151179395205	-28.183121396731405	208.80151179395216	254.0301276285209	
2.437585277295705	750.3843999385036	-60.969927798768026	-55.1138475683357	-60.969927798767685	1119.9839686302876	208.4690481362928	-55.11384756833539	208.46904813629283	327.1007304801869	
2.4905762615847418	711.8545507677063	-54.43052083166026	-84.1364648116687	-54.43052083166003	1059.9643269342027	199.36700176517027	-84.13646481166836	199.36700176517024	405.6171453376645	
2.543567245873779	645.0287228711773	-23.3755178229257	-113.82209831102868	-23.37551782292536	909.2116542620706	184.21169733837286	-113.82209831102833	184.21169733837286	475.17237128360324	
2.5965582301628163	554.6581884334689	20.06415969157031	-142.450212655176	20.06415969157068	720.9120114174839	167.80306114819638	-142.45021265517568	167.80306114819638	523.1468313969193	
2.649549214451853	451.00562977490756	60.60024956418794	-167.8052626076146	60.60024956418829	547.2406278493818	154.77191105632303	-167.80526260761437	154.7719110563231	542.4515794580374	
2.7025401987408904	346.9699899042023	86.79265490124858	-187.44419588389687	86.79265490124887	414.3801996464973	147.08005789676878	-187.44419588389667	147.0800578967689	533.362604297595	
2.755531183029927	253.37435543432701	94.46778894683723	-199.25768614861371	94.46778894683744	319.08841448923295	142.8543304382116	-199.25768614861357	142.8543304382118	502.6813455663522	
2.8085221673189644	175.67908381858354	86.38988080882098	-202.17332484013826	86.38988080882108	242.40613081078817	137.4465656426426	-202.17332484013815	137.44656564264278	460.8694263239403	
2.8615131516080012	112.61351138599588	69.40531255821892	-196.66238443735546	69.40531255821897	166.31476471832985	126.25920131589884	-196.66238443735534	126.25920131589899	418.98740263549473	
2.9145041358970385	58.62684514037636	51.01903070125329	-184.783426873478	51.019030701253286	84.44169889447141	107.6413587263558	-184.78342687347785	107.64135872635592	386.75304671715696	
2.9674951201860758	8.50544690701912	36.51742060123172	-169.58438623305096	36.517420601231635	2.9212897527635135	83.99741372034227	-169.58438623305082	83.99741372034232	371.7613365837004	
3.0204861044751126	-38.616028640501426	27.231970527317287	-153.9369266588205	27.231970527317145	-64.5005069322429	60.52292830630133	-153.93692665882037	60.52292830630131	378.79851139993843	
3.07347708876415	-78.51889758820928	21.27007929506655	-139.44290659239888	21.270079295066438	-104.63228164154876	42.46521089079114	-139.44290659239874	42.46521089079106	408.3664396615347	
3.1264680730531866	-105.04001276640247	16.16687108225699	-126.04770661614259	16.166871082256854	-113.67674712124509	32.55095368192424	-126.04770661614248	32.55095368192412	454.7457450879235	
3.179459057342224	-114.73468030286803	11.291421452879177	-112.55205564558631	11.29142145287905	-96.47330349661226	30.023343189263677	-112.55205564558622	30.02334318926355	505.3404552755244	
3.2324500416312607	-110.9446586417016	10.223751968686734	-97.53758519305485	10.223751968686614	-69.71443859145069	31.62998402652151	-97.53758519305481	31.6299840265214	543.0331126344299	
3.285441025920298	-103.15494747765828	18.468745382859378	-79.99170081828528	18.468745382859225	-48.57932133962365	33.78868903034855	-79.9917008182853	33.78868903034846	551.5364908470332	
3.3384320102093348	-104.00135275330646	40.52916415292172	-59.18652634855239	40.52916415292157	-42.22423432784323	34.73514562764493	-59.186526348552434	34.73514562764489	521.4573735173427	
3.391422994498372	-123.60214754191298	76.33263319060482	-34.225114448479594	76.33263319060467	-50.17138069093313	35.332776627466245	-34.22511444847967	35.33277662746623	453.7652427845157	
3.4444139787874093	-165.206575200214	119.99938943738267	-3.9312710887781286	119.99938943738253	-65.53016171818966	38.27301081338072	-3.931271088778237	38.27301081338075	358.80559068081493	
3.497404963076446	-223.6870357063794	161.54547679699343	32.362133310415224	161.5454767969933	-81.07641781103821	46.10061312363649	32.36213331041512	46.100613123636556	251.74527470675952	
3.5503959473654834	-286.95212456903937	190.77449559233798	73.37875916794067	190.77449559233787	-94.08150072194412	59.326543729831876	73.37875916794056	59.326543729831954	147.2178749998029	
3.60338693165452	-339.5920286612018	201.44460746931725	114.84363248857946	201.4446074693172	-106.71026721587822	75.7532972739589	114.84363248857937	75.75329727395898	55.96473855879806	
3.6563779159435574	-367.81567938385655	193.3078457470537	149.8468758821484	193.3078457470537	-122.4786048903469	91.35054487661719	149.8468758821483	91.35054487661725	-15.489498524449296	
3.7093689002325942	-363.20918915244624	171.51837981377176	170.93300791007172	171.5183798137718	-141.76154532573236	102.0006859589985	170.93300791007167	102.00068595899856	-63.21141354752393	
3.7623598845216315	-324.8307480785328	143.64262361634073	173.02839055211356	143.6426236163408	-159.85383565979794	104.83945548777722	173.0283905521135	104.83945548777726	-84.37031083137273	
3.8153508688106683	-259.25731474539646	116.33489512362235	155.7318275133653	116.33489512362252	-169.03560787290417	98.52212213362408	155.73182751336523	98.5221221336241	-77.47801071047836	
3.8683418530997056	-178.94182853497023	93.60921251295498	123.80399908599665	93.60921251295521	-162.7244973212623	82.64394761826674	123.80399908599657	82.64394761826674	-44.30370837745341	
3.921332837388743	-99.39104212198203	77.09902272621166	85.75561201160706	77.09902272621194	-139.10705644083515	57.380183200186224	85.75561201160697	57.3801832001862	8.254089505592006	
3.9743238216777796	-35.825152740782904	67.71634364858568	51.195626414238646	67.71634364858596	-102.16548948141963	23.983215488806493	51.19562641423852	23.983215488806447	68.37543244046049	
4.0273148059668165	0.70646691525846	66.30172173207421	27.852639946911182	66.30172173207448	-59.83939503658167	-14.319289180013527	27.852639946911033	-14.319289180013598	122.50115091412792	
4.080305790255854	7.180736379865749	72.82423564947933	18.977803812473663	72.82423564947962	-20.710657077903747	-52.15704990096373	18.97780381247346	-52.15704990096382	160.27572510583997	
4.133296774544891	-10.375396307629885	84.85829227399586	22.04587334042377	84.8582922739961	9.154061995899994	-83.3728751869815	22.04587334042356	-83.37287518698163	178.6767484421337	
4.186287758833928	-39.03541695781722	97.3493970779519	29.569921293843198	97.34939707795212	28.485540040594273	-103.29888292790947	29.569921293842985	-103.29888292790957	182.99478462823106	
4.239278743122965	-65.12080174640252	104.53868063713426	32.199408164342856	104.53868063713446	40.99643966212565	-110.49654607007928	32.19940816434267	-110.49654607007938	184.07376978059906	
4.292269727412002	-79.62057370424834	102.9644731918151	23.027570173010822	102.96447319181524	53.379090202251916	-106.87011182697614	23.02757017301068	-106.87011182697618	193.23792277545797	
4.345260711701039	-80.1917095488549	93.59183941552055	0.7990675695492211	93.59183941552068	71.69605239836399	-96.48338505709508	0.7990675695491429	-96.48338505709509	217.31681552096174	
4.398251695990076	-68.6622627320371	81.11920051811123	-29.777409584799685	81.11920051811134	97.03270785661637	-84.0580681244114	-29.777409584799695	-84.05806812441138	256.0966665718366	
4.451242680279114	-46.798659957669926	71.12338613924032	-60.745938730490586	71.12338613924051	124.30873344058543	-73.82318922466548	-60.74593873049052	-73.82318922466543	303.18193138373545	
4.50423366456815	-13.545755498149212	66.8155051027662	-84.91536141878015	66.81550510276628	144.2582416217256	-68.51037070502835	-84.91536141878004	-68.5103707050283	349.5010041631791	
4.557224648857187	34.54097283097485	67.27929772067147	-98.79540831440156	67.27929772067158	148.60281839131474	-68.22391976417161	-98.79540831440139	-68.22391976417158	387.58732737135824	
4.6102156331462245	100.31927635543876	68.18747661374287	-103.09123261967575	68.18747661374303	135.74821462050625	-69.70479049139514	-103.09123261967554	-69.70479049139514	414.51445334425296	
4.663206617435262	183.97983116404598	64.06100198586049	-100.93465626080919	64.06100198586067	113.59472111357096	-67.1638835732131	-100.93465626080894	-67.16388357321311	432.1772265009768	
4.716197601724299	281.93117374649484	51.05894931966389	-95.29972366094286	51.05894931966413	97.76767724595472	-55.05883755922245	-95.29972366094259	-55.05883755922254	445.39082254635406	
4.769188586013335	387.8271336825493	28.96712008369328	-87.38741403373169	28.96712008369353	106.0011224204987	-31.53172326210525	-87.3874140337314	-31.531723262105377	459.34543716275255	
4.822179570302373	494.3816181021344	1.4920683673412682	-76.9050843288839	1.4920683673415738	150.78418829571393	-0.17397962432856273	-76.90508432888359	-0.17397962432875502	477.84949832798725	
4.87517055459141	594.451367426919	-25.415957122552527	-63.746020409710624	-25.415957122552214	234.19870178610608	31.25624208403915	-63.74602040971031	31.25624208403888	502.7152716212593	
4.928161538880447	681.3872784714121	-46.780623488851575	-49.52171417225557	-46.78062348885126	346.40902092525005	54.561237256157995	-49.52171417225527	54.56123725615765	533.4606217313487	
4.9811525231694835	748.4725545568791	-61.018685539655365	-37.39337012717603	-61.01868553965504	468.13349894210165	65.06472441310268	-37.39337012717578	65.06472441310228	566.8028061025983	
5.034143507458521	788.6359263997236	-70.01550371619918	-30.101071625671473	-70.01550371619888	576.4758202413761	63.60173877497166	-30.101071625671324	63.60173877497121	596.4272139064274	
5.087134491747558	795.9370519086976	-76.34477137764515	-27.663309190934065	-76.34477137764483	651.693357316529	55.77977831538289	-27.663309190934015	55.77977831538245	613.9956563133579	
5.140125476036595	767.6735141510167	-80.10850507279036	-26.726336554249798	-80.10850507279002	683.6863856339919	49.11288970193053	-26.726336554249855	49.112889701930136	611.6653972048575	
5.193116460325633	706.4380481202327	-78.37954661568429	-22.33030187114172	-78.37954661568395	675.3936365152313	49.57270173676313	-22.330301871141824	49.57270173676288	585.1689779573849	
5.246107444614669	619.6422739130643	-67.52763277962586	-11.016132220882042	-67.52763277962553	641.6437157207065	59.0979497671426	-11.016132220882142	59.09794976714244	535.6967151191728	
5.299098428903706	517.0584202127869	-46.82227332221392	6.832950913530652	-46.82227332221363	602.6246523572198	75.03410663297397	6.832950913530605	75.03410663297393	469.6009878362687	
5.3520894131927435	407.9414155989239	-20.182570746378	26.925818637121985	-20.182570746377834	574.7067183808167	91.5113452067068	26.92581863712202	91.51134520670686	396.211849917994	
5.405080397481781	299.28651823156554	5.183793430028535	43.24295827595554	5.183793430028523	563.5018264705819	101.91016694679281	43.24295827595564	101.91016694679296	325.08084553803633	
5.458071381770817	195.88517849729135	22.10911254151729	51.001084582623974	22.10911254151708	563.241881462548	101.38034433003922	51.00108458262414	101.38034433003943	264.03420805357246	
5.511062366059854	100.93337474304258	26.512062300691202	48.69911562722078	26.51206230069082	562.3876327915735	88.43167790941939	48.699115627220955	88.4316779094196	218.4469379671596	
5.564053350348892	16.98616984427653	18.40389089067937	38.36739401093418	18.403890890678838	551.2033369285158	65.21736548076919	38.36739401093433	65.2173654807694	191.26060981118675	
