# Stress in units of bar (10^5 Pa)
# z	Sxx	Sxy	Sxz	Syx	Syy	Syz	Szx	Szy	Szz
0.0	-633.5987510726338	136.82488207701275	-94.52798527790057	136.82488207701266	-539.7870509103188	268.30487496056713	-94.52798527790083	268.30487496056645	-13.26147342445514	
0.05017401781664116	-589.9714347896178	156.6110494312823	-85.96065377529516	156.61104943128223	-495.8969530377118	272.011587373774	-85.96065377529543	272.0115873737731	10.886914988489131	
0.10034803563328232	-534.7970292243346	179.70378104678628	-79.5570538138744	179.70378104678616	-430.46050817021035	272.62362971587555	-79.55705381387463	272.6236297158747	37.33287532136716	
0.15052205344992348	-473.68812401837613	204.18483928215304	-75.13161971847035	204.18483928215284	-343.3406867046133	269.20141749982577	-75.1316197184705	269.2014174998248	63.6952088852929	
0.20069607126656464	-411.08204445255456	226.80313452500766	-71.90315354114891	226.8031345250072	-236.87075970731405	260.12133754173556	-71.90315354114895	260.1213375417347	88.05793502327921	
0.2508700890832058	-349.92872994572485	243.50299505363012	-68.60634666698215	243.50299505362943	-116.57340098122808	243.647825420216	-68.60634666698209	243.64782542021516	109.44131944663896	
0.30104410689984695	-291.924057676159	250.50304190517136	-63.709474927012224	250.5030419051705	8.410342574086966	218.66244852678193	-63.70947492701205	218.6624485267812	127.91396512390094	
0.3512181247164881	-238.1846478872702	244.8604707443523	-55.71551633141634	244.86047074435123	126.90883038246002	185.2954645379101	-55.715516331416026	185.2954645379095	144.37068414581427	
0.40139214253312927	-190.14325491287843	225.48428438398253	-43.46157516033149	225.4842843839812	226.66412849240857	145.20864468285288	-43.46157516033103	145.20864468285237	160.00889629423386	
0.45156616034977043	-149.62007229773008	193.22809159800005	-26.316509344525024	193.2280915979986	297.1724065135538	101.38573308142689	-26.316509344524395	101.38573308142654	175.82623182250822	
0.5017401781664116	-118.48594577345277	151.0601004192456	-4.25928935858519	151.0601004192441	331.35462916405504	57.44651123021381	-4.259289358584398	57.44651123021357	192.26776111299523	
0.5519141959830527	-98.19702441444996	103.61708539685245	22.138280587265417	103.61708539685094	326.44146810164796	16.765019848075934	22.138280587266394	16.76501984807583	209.18407030553675	
0.6020882137996939	-88.29919806749999	56.63676326564563	51.779692779150096	56.63676326564415	285.00591497390104	-18.317677256206675	51.77969277915122	-18.317677256206622	226.04060615982206	
0.6522622316163351	-86.59912553813177	16.23276672230285	83.20520430507298	16.23276672230149	213.5963779292585	-46.972674747514404	83.20520430507425	-46.972674747514226	242.22925743975298	
0.7024362494329762	-88.6048473000294	-11.992660071203233	114.77387863401748	-11.992660071204455	121.96124746179933	-69.84370845328478	114.7738786340188	-69.84370845328448	257.3628282532229	
0.7526102672496173	-88.71586181118572	-23.45392534165439	144.87414968312842	-23.45392534165544	21.08668761491262	-88.53826288366645	144.87414968312976	-88.53826288366604	271.41826571293586	
0.8027842850662585	-81.37794908628486	-15.503284910261783	172.12005868694686	-15.503284910262636	-78.16158626144824	-104.86634231566848	172.1200586869482	-104.86634231566802	284.7590679839553	
0.8529583028828998	-62.676724398698894	12.474743154817276	195.54197172981736	12.474743154816622	-166.81455144842653	-120.10757938767772	195.5419717298186	-120.10757938767718	298.0205486267828	
0.9031323206995409	-31.511675382794955	58.54987184728287	214.6862349377639	58.54987184728239	-238.7393454338984	-134.49725678665084	214.68623493776494	-134.4972567866503	312.0026633527715	
0.953306338516182	9.78943657292831	118.67554007909682	229.64282839361476	118.67554007909645	-290.8738403102667	-147.06571849124978	229.64282839361562	-147.06571849124924	327.5094557196126	
1.0034803563328232	56.07806349296699	186.6750075342285	240.9052260001572	186.67500753422826	-323.1060451598085	-155.87220223099598	240.90522600015785	-155.8722022309955	345.20506294250777	
1.0536543741494644	99.77460326922915	255.35016399743438	249.14314148588244	255.35016399743415	-337.1517621682602	-158.54174021880632	249.14314148588278	-158.54174021880593	365.40107110287096	
1.1038283919661054	133.17226109081088	317.22651634160286	255.0261358755054	317.22651634160275	-335.5278745419104	-152.90498510119443	255.02613587550547	-152.9049851011941	387.8754421122555	
1.1540024097827466	149.2664232303117	365.9866278138556	259.06011694866766	365.9866278138554	-320.3234658334303	-137.64004666740223	259.06011694866754	-137.64004666740195	411.7074233859741	
1.2041764275993878	143.11101116549256	397.3140013377852	261.5777106710411	397.31400133778504	-292.84562282852005	-112.73359690908646	261.57771067104073	-112.7335969090862	435.198704656886	
1.254350445416029	113.41991618745664	409.62287557579134	262.742054875667	409.6228755757912	-253.53470104879744	-79.55136814555846	262.7420548756665	-79.55136814555824	455.9373403089528	
1.3045244632326702	62.58976364082723	403.8431139111077	262.6721126154377	403.8431139111077	-202.11672141576474	-40.676722777199124	262.6721126154371	-40.676722777198925	471.013883277119	
1.3546984810493112	-2.7663029411984326	382.9496703794102	261.418801306766	382.9496703794101	-138.73941552781025	0.5573744301627457	261.4188013067653	0.557374430162902	477.4306805556839	
1.4048724988659524	-72.13466286502347	350.7343308109315	258.87525030137203	350.7343308109315	-63.91101152621118	40.689464225338455	258.87525030137135	40.68946422533857	472.76106839622014	
1.4550465166825937	-132.5959996787505	310.95697312874796	254.6477078360261	310.9569731287479	20.940582333034115	76.60291596055998	254.64770783602546	76.60291596056004	455.76180918081724	
1.5052205344992347	-170.59781144020255	266.39507081849206	247.86843174581477	266.395070818492	113.53858254663001	105.95010722079462	247.86843174581426	105.95010722079462	426.99251018225937	
1.5553945523158759	-174.52888795439537	218.68534288999	237.27775783225448	218.68534288999007	210.93783285468942	127.38073937434712	237.27775783225403	127.38073937434702	389.07675771247165	
1.605568570132517	-137.62595019951698	168.49657805072968	221.45396189246603	168.49657805072985	309.8636436852892	140.6505431476622	221.45396189246568	140.65054314766203	346.50006385824537	
1.6557425879491583	-59.37777824243538	115.83786050884247	199.3013343951842	115.83786050884274	407.1106177766849	146.6598829967869	199.30133439518403	146.65988299678665	304.83337561339283	
1.7059166057657995	53.86249375255207	60.99528210751839	170.56358883683632	60.99528210751882	499.61951648381455	147.35690004176521	170.5635888368363	147.35690004176496	269.6120292589286	
1.7560906235824405	189.82273078158323	4.821724499224445	136.18467639683274	4.821724499225013	584.98715926641	145.51017598989046	136.18467639683283	145.51017598989017	245.06883736742077	
1.8062646413990817	333.1996027948855	-51.04294789872287	98.35070811423735	-51.04294789872219	660.9773133646214	144.16101106252972	98.35070811423752	144.1610110625295	233.28841919629576	
1.856438659215723	468.86420418712873	-104.11538153021209	60.22809360399813	-104.11538153021151	726.1134896155303	145.89168355258414	60.22809360399836	145.89168355258394	233.90463285923613	
1.906612677032364	585.1328856101679	-151.24104195367676	25.41940710392799	-151.24104195367624	779.4483776983861	152.0470652167174	25.41940710392824	152.04706521671733	244.53131240941232	
1.9567866948490051	675.8334999495478	-189.43847234294924	-2.6313572646964625	-189.43847234294884	821.0836232808365	162.2464863316506	-2.631357264696242	162.24648633165063	261.7344836486999	
2.0069607126656464	740.6814563734727	-216.28532398607504	-21.211761032988854	-216.28532398607481	851.8393385824301	174.34007337430347	-21.21176103298867	174.34007337430359	282.0847705715612	
2.0571347304822876	784.1804284138324	-230.63780327932648	-28.708553780700612	-230.63780327932648	874.104952663057	185.00058546501756	-28.708553780700488	185.00058546501776	302.91127543815327	
2.107308748298929	812.7914395805312	-232.8015730531617	-24.780726278183945	-232.80157305316186	890.7333353090786	190.68690768422445	-24.780726278183902	190.6869076842247	322.5568030668822	
2.15748276611557	832.4659023421649	-224.45776097399184	-10.310610021387888	-224.45776097399215	904.705269218209	188.7025537247973	-10.310610021387895	188.7025537247976	340.1800085673272	
2.2076567839322108	846.4167345246781	-208.08870336824987	12.760782557425333	-208.0887033682502	918.0288335284837	177.97866009712692	12.76078255742524	177.97866009712723	355.2933447422801	
2.257830801748852	854.1237909964539	-186.24295117275875	41.72095896245734	-186.24295117275915	930.3311668677086	159.37872495537812	41.72095896245719	159.37872495537837	367.44276920135513	
2.308004819565493	852.4035916866458	-160.84751374824157	73.45532755534438	-160.8475137482419	938.7179815590605	135.50591500243678	73.45532755534421	135.50591500243695	376.13271582429024	
2.3581788373821344	836.5937567997521	-132.54321633977798	104.78955561182974	-132.54321633977818	937.6333797892378	110.09260962960964	104.78955561182954	110.09260962960978	380.85270866276517	
2.4083528551987756	803.1009962445138	-101.04237205961635	132.92561855753527	-101.04237205961638	920.2694648158281	87.1510229352782	132.92561855753507	87.15102293527826	381.207902190593	
2.458526873015417	750.7313101475647	-65.43444693807248	155.8004173203751	-65.43444693807254	880.3179626865381	70.21779108269702	155.80041732037483	70.217791082697	376.86493355428166	
2.508700890832058	681.9474625903556	-25.41486425959536	172.31174632639903	-25.41486425959527	814.1481219155569	61.69399439124519	172.3117463263988	61.6939943912451	367.4034645524495	
2.5588749086486993	602.4268773743138	18.113294140300667	182.52579802115815	18.113294140300667	722.1725125096173	62.34933780924749	182.52579802115787	62.34933780924733	352.15965137625574	
2.6090489264653405	520.4099970026527	62.48611460712384	187.62999246531143	62.48611460712394	609.4092885695115	71.1220660395055	187.6299924653111	71.12206603950531	330.3927845418806	
2.6592229442819812	445.0943105407513	103.70683537839255	189.77151810764892	103.70683537839257	484.81099108046914	85.31432823263162	189.77151810764855	85.31432823263138	301.79725707941964	
2.7093969620986225	385.52642233963667	137.28135847069484	191.6395174316265	137.28135847069484	359.6751858343023	101.02766122438504	191.6395174316261	101.02766122438479	267.27774398939573	
2.7595709799152637	348.7425794149316	159.61265665311032	195.79057802569017	159.6126566531103	245.55355218163635	113.93725677287439	195.79057802568985	113.93725677287406	229.4532192082259	
2.809744997731905	339.2911482472729	168.8192230965308	203.99985909357108	168.81922309653078	152.12715093996172	120.16818310865946	203.99985909357073	120.16818310865915	192.64852213966435	
2.859919015548546	358.106502441215	165.35107789872083	216.58380786951167	165.3510778987208	85.75210682155405	117.09187766978326	216.58380786951133	117.09187766978295	162.1188886204643	
2.9100930333651873	402.0688125938589	151.5948899828567	232.14147448572714	151.59488998285664	48.6776113264704	103.85250167763726	232.14147448572686	103.85250167763694	142.81605899848483	
2.9602670511818285	464.8789202331615	131.01427576174763	247.63507539410995	131.01427576174765	39.02226559178365	81.5838795026413	247.63507539410972	81.583879502641	138.104953443973	
3.0104410689984693	537.6514326630328	106.81491195771372	259.07077046149357	106.81491195771373	51.639047106826226	53.203294819798955	259.07077046149345	53.203294819798685	148.87557675433183	
3.0606150868151105	610.7273756334914	81.33498568892263	262.43995996190597	81.33498568892263	78.97411104892801	22.816602049880487	262.43995996190597	22.816602049880252	173.24639046570704	
3.1107891046317517	675.399363668505	55.521458817121015	254.7091436053307	55.521458817121015	112.28584209784958	-5.055345795648092	254.70914360533067	-5.055345795648305	206.94321873571792	
3.160963122448393	725.0487621455136	29.788246811779956	234.52041837129377	29.788246811779942	142.62903720777203	-26.367255368304043	234.52041837129383	-26.367255368304214	244.06523854639758	
3.211137140265034	756.049875438413	4.697362629747936	202.34999033904484	4.697362629747886	161.93703241142396	-38.354807083385296	202.34999033904492	-38.354807083385445	278.1527062737258	
3.2613111580816754	767.4388900388957	-17.99650097473566	160.26731861126882	-17.996500974735703	163.7004695408571	-40.03220253952926	160.2673186112689	-40.03220253952938	303.3021759917938	
3.3114851758983166	760.2021659339057	-35.14756217515646	111.37462760883706	-35.14756217515651	144.22393330730597	-32.31042404513035	111.37462760883717	-32.31042404513045	315.2317083719654	
3.361659193714958	736.8007539512736	-42.8017127943765	59.343269412434424	-42.80171279437654	103.36587076211859	-17.713444672826547	59.34326941243452	-17.71344467282664	311.97508996203044	
3.411833211531599	700.8879166797569	-37.390395025171884	8.186135565860969	-37.390395025171934	45.17459535255692	0.14584802578218614	8.186135565861074	0.1458480257821222	294.1163036769811	
3.46200722934824	656.3955434429707	-17.180931350014674	-37.69474510952894	-17.18093135001469	-22.20363945259652	17.39395039032787	-37.69474510952883	17.393950390327824	264.3596184734758	
3.512181247164881	607.7037657153035	16.315809092281356	-73.54128727318135	16.315809092281356	-87.99032316019557	30.620978718437588	-73.54128727318128	30.62097871843755	226.62810152287895	
3.562355264981522	558.7698393785462	58.140931369859665	-94.51258551026598	58.140931369859686	-140.5523890015156	37.57727690431559	-94.51258551026591	37.577276904315575	184.92798139529867	
3.6125292827981634	512.6399930076448	100.78247931432715	-96.51796748477796	100.78247931432713	-170.37483164854717	37.64814360931044	-96.51796748477787	37.648143609310424	142.3867703971591	
3.6627033006148046	470.77798369661474	135.79633082415464	-77.28798488960948	135.79633082415464	-172.5072250910027	31.982469162569835	-77.28798488960939	31.982469162569846	100.8516371466409	
3.712877318431446	433.2287318251695	156.0852829608569	-37.44235308895067	156.08528296085694	-148.2285806604381	23.252470758583755	-37.44235308895061	23.252470758583776	61.06149874624076	
3.763051336248087	399.3743604479389	157.83346255333853	18.947388157051503	157.83346255333853	-104.78476058252069	15.126556217031943	18.94738815705155	15.126556217031986	23.062731190673553	
3.813225354064728	368.9450090040289	141.24594760049882	84.63288431447823	141.24594760049877	-53.2898679010716	11.47233384602091	84.63288431447829	11.472333846020952	-13.36827070370417	
3.863399371881369	342.6427172425804	110.32578206825369	150.35483108499858	110.32578206825363	-5.698669003881637	15.435709470219052	150.35483108499864	15.435709470219123	-48.43154421117644	
3.9135733896980103	322.5340778725486	71.65395293186475	206.54272511434257	71.65395293186465	28.88877951618909	28.671137373390728	206.5427251143426	28.671137373390813	-82.1615807916655	
3.9637474075146515	310.82183392413754	32.418720302628515	245.0279196037633	32.41872030262839	46.98791369351851	50.87242705257809	245.02791960376334	50.87242705257822	-114.15561494600503	
4.013921425331293	308.7342869514998	-1.0188104874532407	260.4782489980947	-1.018810487453358	51.27955415091091	79.74178139853603	260.4782489980948	79.74178139853615	-143.09831185028074	
4.0640954431479335	315.3397735849038	-23.993807079290136	251.08163878368686	-23.993807079290278	49.66608960731419	111.37338013081961	251.08163878368694	111.37338013081977	-166.31688433223775	
4.114269460964575	327.37545546120003	-33.86075051201037	218.62865565925307	-33.86075051201047	52.27064156876003	140.9160879594528	218.62865565925313	140.91608795945294	-179.65787325376724	
4.164443478781216	339.97137118193325	-29.577787262879415	167.99184130364029	-29.577787262879546	68.4861680931199	163.54943437242778	167.99184130364037	163.54943437242792	-178.16510697431042	
4.214617496597858	348.4126012356073	-11.822824542143792	106.17887478540644	-11.822824542143884	104.24047510396727	175.49691012821438	106.17887478540658	175.49691012821452	-157.43244814572907	
4.264791514414498	349.5720548347763	17.20384342579417	41.218113020656496	17.203843425794137	161.1759276066353	174.76775080283912	41.21811302065662	174.76775080283932	-115.40908393018086	
4.31496553223114	343.146873980369	53.43671896151436	-18.989236946885796	53.43671896151437	237.02700806912932	161.54857533943618	-18.989236946885633	161.54857533943627	-53.85525016385451	
4.365139550047781	330.9930263353702	91.25492616326021	-67.73931145156017	91.25492616326027	327.127984322807	138.0388072352186	-67.73931145156	138.0388072352187	21.33721212123693	
4.4153135678644215	316.52119424144973	124.32256796560115	-100.2055842609373	124.32256796560122	426.23573012986964	107.76488891423196	-100.20558426093712	107.76488891423205	101.27092177705788	
4.465487585681063	302.4809575883844	147.39664701808638	-113.8823595119793	147.39664701808658	529.6823787374369	74.7143389926665	-113.88235951197913	74.71433899266651	176.2017900267104	
4.515661603497704	290.2010978131155	158.12217519304602	-108.50897639024821	158.12217519304613	634.2404871954941	42.52874428539683	-108.50897639024805	42.528744285396826	238.1382263783563	
4.565835621314346	279.0375948405094	158.17235973264167	-85.69010140492861	158.17235973264184	737.6726247392303	13.966112859529975	-85.69010140492848	13.966112859529925	282.72600583886214	
4.616009639130986	266.5127219329728	153.09689676153053	-48.38427404881027	153.09689676153073	838.0857542038418	-9.323486836698175	-48.38427404881021	-9.32348683669825	309.8591676247108	
4.666183656947628	249.86184522459496	150.6507960028333	-0.3992721150063261	150.65079600283343	933.2835636676579	-26.820238296289435	-0.39927211500629944	-26.820238296289524	322.7989576868215	
4.716357674764269	226.5373403510348	157.901905459766	53.973824689449835	157.90190545976623	1019.6339220942403	-39.143324805863465	53.97382468944983	-39.14332480586357	326.3759967631649	
4.7665316925809105	194.98592000969745	178.74778415930925	110.25919888432432	178.74778415930936	1092.079021922911	-48.04630169886954	110.25919888432425	-48.046301698869655	324.9885183664701	
4.816705710397551	154.63974865842692	212.214289227571	164.04712346548672	212.21428922757102	1144.2974249833364	-56.43692340101456	164.04712346548655	-56.43692340101468	321.159693446995	
4.866879728214192	105.97581610118917	252.61489764106287	211.26912819582162	252.61489764106287	1169.6930905118143	-68.1002599302337	211.26912819582148	-68.10025993023379	315.1324636912303	
4.917053746030834	50.73135431494667	291.40531195390383	248.5907157561851	291.4053119539039	1162.8130636581109	-87.08374574593779	248.59071575618492	-87.0837457459379	305.44847987265365	
4.967227763847474	-7.886609562270905	319.7632441027348	273.81756082348886	319.7632441027348	1120.7924940437763	-116.7390443672679	273.81756082348863	-116.73904436726795	290.03927636004664	
5.017401781664116	-65.04872198847714	331.30674557795504	286.18252655587105	331.3067455779551	1043.8468099862048	-158.6694640268077	286.1825265558708	-158.66946402680773	267.3593519603435	
5.067575799480757	-114.9810775562629	323.58966067190073	286.3446880268192	323.5896606719008	935.5365376746914	-211.8812254722285	286.344688026819	-211.8812254722285	237.07192223876388	
5.1177498172973985	-152.40550204694426	298.83498743887515	276.1172101698437	298.83498743887526	802.128506146173	-272.52275386369143	276.1172101698435	-272.5227538636913	200.14778685683683	
5.167923835114039	-175.1918411107476	262.55301254636805	258.03743861408634	262.55301254636817	651.4588968635592	-334.3053915313661	258.0374386140861	-334.30539153136596	158.530871329114	
5.218097852930681	-186.15103516900257	222.16950021081732	234.8177873139972	222.1695002108174	491.89910220655696	-389.67945946276586	234.81778731399697	-389.6794594627655	114.6069621891114	
