# Stress in units of bar (10^5 Pa)
# z	Sxx	Sxy	Sxz	Syx	Syy	Syz	Szx	Szy	Szz
0.0	-794.7699678233989	66.1788152596568	-75.08842471049235	66.17881525965765	-597.3279893734018	255.05800522583405	-75.08842471049317	255.05800522583328	-83.22807557932835	
0.05017401781664116	-613.2541942565798	70.67433871883878	-52.86344261166164	70.67433871883975	-593.6335385278948	247.29727322950782	-52.86344261166247	247.29727322950646	-27.336652176704636	
0.10034803563328232	-457.46254095024705	109.89319996098635	-42.7118095170864	109.89319996098698	-606.7114891688132	254.29633548326004	-42.71180951708693	254.29633548325833	50.8884455510271	
0.15052205344992348	-370.90651448837684	181.56234559275708	-47.44899433024395	181.5623455927573	-584.1698890865621	279.52669251416796	-47.44899433024407	279.52669251416637	126.50526239161435	
0.20069607126656464	-346.9900300935539	270.67453827908906	-63.12725724140239	270.6745382790889	-477.935029526998	316.0963524960695	-63.12725724140229	316.0963524960682	172.18663488015505	
0.2508700890832058	-348.8565306414146	348.3098199752187	-82.21300558819424	348.3098199752182	-275.6567894989768	344.3529958683788	-82.21300558819408	344.35299586837783	174.80694746298144	
0.30104410689984695	-333.837434641884	387.7478078384886	-97.20394698675088	387.74780783848746	-0.2806842597939152	340.76481021245456	-97.20394698675075	340.7648102124539	144.80894243214397	
0.3512181247164881	-275.0414409903953	382.2614056987744	-101.9714287934668	382.2614056987728	297.2600455990377	291.7511090801263	-101.97142879346666	291.75110908012584	111.69983898411591	
0.40139214253312927	-177.53144714186485	344.15600819108704	-92.39599426055928	344.1560081910851	546.0106850911966	201.55621976026202	-92.39599426055904	201.55621976026168	105.63762798691246	
0.45156616034977043	-73.50214031119975	287.57812921491524	-68.21957846858994	287.5781292149131	686.6871890247514	89.99493621741975	-68.21957846858952	89.99493621741942	136.44308851766678	
0.5017401781664116	2.477788570393092	214.6570337232755	-34.67757568960686	214.6570337232735	705.3768115234735	-15.683518587219254	-34.67757568960621	-15.683518587219552	187.74944570719086	
0.5519141959830527	38.25125215432362	120.0864490805557	0.5938273012201235	120.08644908055385	630.9240804447918	-90.26914295103919	0.5938273012210421	-90.26914295103941	232.54043334845284	
0.6020882137996939	40.5808091260829	8.674427697550243	35.03398908470048	8.674427697548523	503.9840601170969	-120.64979472443503	35.033989084701744	-120.64979472443515	255.34879657924125	
0.6522622316163351	8.659318875147846	-96.13040895526184	73.71579960456889	-96.13040895526345	351.5754192841426	-112.68521755800627	73.7157996045705	-112.68521755800623	260.7090267202234	
0.7024362494329762	-67.23530806870801	-165.96344529421827	121.48737093215937	-165.96344529421978	180.63731280775465	-87.34082998501438	121.48737093216127	-87.34082998501405	263.3996544453264	
0.7526102672496173	-173.22500085204064	-188.91720747140255	173.76577138019286	-188.91720747140388	-9.582047616623242	-67.32484064685131	173.7657713801949	-67.32484064685069	273.1975171990431	
0.8027842850662585	-262.15549991524085	-174.22386839914628	218.0146406866484	-174.22386839914722	-209.94039702070899	-65.72901531447032	218.01464068665027	-65.72901531446944	288.25874271250586	
0.8529583028828998	-283.901697140188	-136.77730058882295	244.43109067037426	-136.77730058882352	-387.96568709608755	-83.98933607071662	244.4310906703759	-83.98933607071561	300.5437591362018	
0.9031323206995409	-215.01296437547688	-78.79828385874646	253.48641206398216	-78.7982838587466	-492.95370637483524	-116.45066823680148	253.48641206398355	-116.45066823680054	305.8212852979848	
0.953306338516182	-70.43768475836856	12.529248465747543	253.1999570379618	12.529248465747713	-491.9066287378123	-155.77640584885756	253.19995703796286	-155.7764058488568	308.3316773942469	
1.0034803563328232	98.09646401797795	146.9817053286765	251.4672080425422	146.9817053286767	-413.23230824152876	-195.80378084468907	251.46720804254284	-195.8037808446885	316.5118426145296	
1.0536543741494644	230.54733258952896	310.52153626593383	251.9417734041396	310.5215362659336	-338.8606558531636	-230.69076066023464	251.94177340413987	-230.69076066023433	335.17956311727994	
1.1038283919661054	301.49920248097243	466.37477866427577	254.82868989299823	466.37477866427525	-329.9688295470652	-251.8658328630897	254.82868989299817	-251.8658328630897	362.69150017820294	
1.1540024097827466	327.65803412572717	576.4409196309905	259.61511954957246	576.4409196309898	-369.2295343179396	-247.69751220425073	259.6151195495722	-247.6975122042509	395.2261762274006	
1.2041764275993878	333.83886296634813	617.5577538414732	267.3858468159354	617.557753841473	-390.8418100080677	-209.2740868641837	267.3858468159349	-209.27408686418383	432.0235875701967	
1.254350445416029	321.8877691908542	586.6544730167861	278.91282225456337	586.6544730167864	-356.9353769004782	-138.11296730056756	278.9128222545625	-138.11296730056745	474.6978130967999	
1.3045244632326702	270.5211926677657	503.7952184108128	287.7820608249835	503.7952184108134	-286.4874351426161	-48.180205194332295	287.7820608249823	-48.18020519433186	521.4993900045189	
1.3546984810493112	153.1542092635151	406.69661805753356	280.53581506586397	406.69661805753407	-213.94533521147832	39.32249375045967	280.5358150658626	39.32249375046027	563.6522261228911	
1.4048724988659524	-41.42631005561668	330.0271223330879	253.29656927730838	330.02712233308796	-145.65869961957418	104.89347241742166	253.29656927730713	104.89347241742212	588.6727263628883	
1.4550465166825937	-286.82111302230044	285.76329108350114	226.33001306970772	285.7632910835008	-61.60363608311104	140.98937898292738	226.33001306970684	140.98937898292755	586.9525905224277	
1.5052205344992347	-511.62482518274874	262.2447546681567	228.7265374651582	262.24475466815596	58.04876815826236	157.96925923304326	228.72653746515766	157.96925923304306	553.384719423404	
1.5553945523158759	-634.520316185678	237.79087087263915	263.9421323042501	237.79087087263858	210.03423121463075	175.47580154878221	263.94213230424975	175.47580154878193	483.027962978382	
1.605568570132517	-615.4687854785051	197.58242142522906	300.10913308792067	197.5824214252288	360.5147196538078	201.56615381675994	300.1091330879204	201.56615381675968	372.1225610035448	
1.6557425879491583	-463.81875916107583	143.75358205485261	300.1212630640245	143.75358205485276	471.95663613012266	221.54433311250924	300.1212630640243	221.54433311250898	232.43288942854045	
1.7059166057657995	-206.47887069267418	88.58362187504761	255.04855328694396	88.58362187504818	544.7883566523616	211.31438355554616	255.0485532869439	211.31438355554576	103.81391182507076	
1.7560906235824405	129.47545922066382	35.35381131546761	183.16315005724002	35.35381131546855	617.5822922516484	162.02863862841164	183.16315005724022	162.02863862841104	39.37463457350502	
1.8062646413990817	499.97180384644537	-30.04391273243968	104.57875033439285	-30.0439127324384	715.5771552202741	92.07607836418701	104.5787503343934	92.07607836418632	65.81754153488548	
1.856438659215723	826.3309517485006	-121.37244252542911	27.958224961707884	-121.37244252542763	817.2302624903484	37.82537460090937	27.95822496170861	37.825374600908795	157.9486806070181	
1.906612677032364	1014.3470987074525	-226.42020524378194	-41.36935056241055	-226.42020524378052	886.0976268302309	32.01709638627075	-41.369350562409835	32.01709638627048	258.0380181626609	
1.9567866948490051	1019.1958482803504	-309.1049049793762	-93.79843171396578	-309.1049049793751	917.31192819288	84.46338194391797	-93.79843171396521	84.46338194391795	320.95386545229303	
2.0069607126656464	899.4718090426961	-344.6761889867987	-120.89752502774164	-344.676188986798	934.6963217137794	176.02801450932304	-120.8975250277413	176.02801450932333	339.09790243154157	
2.0571347304822876	771.5895722974988	-342.0666199484999	-122.5918875164388	-342.06661994850003	946.8504011095813	267.9885417145574	-122.59188751643869	267.9885417145578	330.66583788199114	
2.107308748298929	707.2086589006783	-323.99905622625994	-105.81888775151384	-323.9990562262606	930.4091356138993	321.97922630598976	-105.81888775151396	321.9792263059904	317.2135322030805	
2.15748276611557	707.251722905649	-294.1365351050258	-77.05901658167743	-294.1365351050271	870.6810590760107	320.0095779225256	-77.05901658167765	320.0095779225263	315.04224565243555	
2.2076567839322108	760.3607184020625	-237.0124489078603	-36.53343722869045	-237.01244890786163	805.0987777133123	270.7845396684015	-36.53343722869071	270.78453966840226	335.29100338877026	
2.257830801748852	865.1851725587001	-152.1888138085596	18.806209282555827	-152.1888138085608	800.291968387734	199.40697138095663	18.806209282555642	199.40697138095717	379.35939597302564	
2.308004819565493	991.4315759068103	-80.46291917445166	84.92899235202728	-80.46291917445237	886.4216727344149	131.00536040783734	84.92899235202714	131.00536040783757	432.12651250252475	
2.3581788373821344	1073.428794729128	-76.30230848544221	147.071638935488	-76.30230848544237	1030.2354258988814	77.80323804504384	147.0716389354879	77.80323804504383	463.59375278706364	
2.4083528551987756	1065.3756728531253	-139.18705939109867	191.08381889573369	-139.18705939109822	1162.229276023318	35.37499847558786	191.08381889573354	35.37499847558765	446.192028628431	
2.458526873015417	967.2140665319728	-191.02978514336235	216.26427349299084	-191.0297851433615	1214.153795143019	-5.845529628125817	216.2642734929907	-5.845529628126016	382.73599883178633	
2.508700890832058	799.7159094196992	-156.0859123692539	231.49616518798086	-156.08591236925292	1145.4237417607394	-41.56509317848473	231.4961651879807	-41.565093178484865	319.366586138997	
2.5588749086486993	599.425114643016	-46.66776835857695	239.72744954301635	-46.667768358576325	963.54437518448	-50.40767905948253	239.72744954301615	-50.407679059482625	315.124638668071	
2.6090489264653405	422.6686811148568	70.83661429220436	233.46768004087056	70.83661429220464	722.3536654997929	-14.44818223379883	233.46768004087033	-14.44818223379898	381.5140359080812	
2.6592229442819812	305.31973230057406	168.39519511268702	207.36795880474108	168.39519511268693	477.4928491280359	59.39848520003747	207.3679588047407	59.398485200037186	454.41638475626337	
2.7093969620986225	228.15354519319337	260.87465837970717	168.96957283539703	260.8746583797067	243.81651442454347	141.36449714061666	168.96957283539655	141.36449714061627	442.3578651968121	
2.7595709799152637	152.22752527652338	340.93059576683794	133.63350860268517	340.93059576683754	20.934955448682743	201.28096246344006	133.63350860268457	201.28096246343966	311.5028096021691	
2.809744997731905	78.75282278352962	362.29641538456485	115.052348803995	362.2964153845645	-153.69703834955453	228.18485903713147	115.05234880399439	228.1848590371311	121.13445062090821	
2.859919015548546	58.622924036520715	292.5202034126294	125.14022752806022	292.52020341262937	-225.42380856536826	228.11547237221941	125.1402275280597	228.11547237221905	-26.371791064717286	
2.9100930333651873	148.24101743047729	160.99083531665133	174.10980743875834	160.99083531665144	-190.9612250703167	206.02953299052584	174.109807438758	206.02953299052552	-69.78718394741838	
2.9602670511818285	352.83816260473105	44.446136989810455	258.8582389674651	44.44613698981067	-104.96831415623672	157.68364277871086	258.8582389674649	157.68364277871058	-26.331875509965904	
3.0104410689984693	605.6137267425505	2.14195514887804	352.5726313128142	2.1419551488782247	-19.38779182797113	82.40461039780057	352.5726313128141	82.40461039780027	45.9901143587433	
3.0606150868151105	809.3281884003	30.606840162756725	415.2076277594198	30.606840162756804	54.948489285261054	-4.948909110612586	415.20762775941984	-4.948909110612835	109.91515614092357	
3.1107891046317517	906.9200298005273	81.56443309839298	418.3263836626528	81.56443309839298	130.9073066383612	-83.06393051873715	418.3263836626529	-83.06393051873734	169.26968033482984	
3.160963122448393	910.6499769179228	107.93072372468284	360.9602992646742	107.93072372468271	214.54279786489826	-138.59168276625735	360.9602992646744	-138.59168276625752	243.88625466509419	
3.211137140265034	872.1141343459972	87.20788889323657	265.8415755941802	87.20788889323634	295.6427812385732	-164.0645543347386	265.84157559418054	-164.06455433473874	340.6217312785402	
3.2613111580816754	837.2449562779275	21.15069159536263	164.63222930204682	21.15069159536243	355.6754976325728	-151.3590415192648	164.6322293020471	-151.3590415192649	443.174092263371	
3.3114851758983166	825.8943945054676	-71.90459336026206	84.4044456319193	-71.90459336026218	376.15227475514195	-100.61911380111984	84.40444563191951	-100.61911380111991	515.6960026367615	
3.361659193714958	830.4457665753271	-167.51314299743643	37.40434302250024	-167.51314299743663	341.2635207453071	-30.65265555243706	37.40434302250035	-30.652655552437093	517.8301034418514	
3.411833211531599	818.7167350153832	-239.26033083923966	12.194247493045914	-239.2603308392398	237.79785010264644	31.500557013104057	12.194247493045971	31.500557013104043	432.0208700541957	
3.46200722934824	750.9251210424609	-253.77526807159376	-24.675738728942996	-253.77526807159387	59.597404599333665	71.85281085159284	-24.675738728942953	71.8528108515928	286.67666492778534	
3.512181247164881	615.5045086247127	-178.87603193188798	-104.66912385039385	-178.87603193188795	-177.27789877653518	96.11057672857405	-104.66912385039376	96.11057672857399	148.50787145180365	
3.562355264981522	454.2242329691928	-13.204602240171607	-223.22140478956365	-13.204602240171521	-418.39165009760444	115.05162220039242	-223.2214047895635	115.05162220039236	79.2643604121361	
3.6125292827981634	343.06723518890686	195.50838624340037	-329.9518628170965	195.5083862434004	-580.823108170328	124.94654921515247	-329.95186281709636	124.9465492151524	88.41910899274225	
3.6627033006148046	336.7920675332768	372.2757616262571	-359.69454872769865	372.27576162625724	-595.7793972058555	106.27004334633656	-359.6945487276985	106.27004334633658	125.33973353693531	
3.712877318431446	420.67964464592427	456.77280312197865	-278.86947690915576	456.77280312197865	-451.27377584345146	46.25903381168372	-278.8694769091556	46.25903381168378	123.07198000812188	
3.763051336248087	510.94218954238124	428.1683402727451	-107.04302081761222	428.1683402727452	-197.4450012550431	-38.004453073044715	-107.04302081761216	-38.004453073044616	55.59903128570759	
3.813225354064728	512.6955753763222	304.5183817638855	100.2967240535152	304.5183817638855	83.68792808312173	-104.33613138827234	100.2967240535152	-104.33613138827224	-44.4966489464621	
3.863399371881369	395.5805076616564	131.8777149085575	286.5010637907371	131.87771490855752	311.2997448921286	-116.99418898558147	286.501063790737	-116.99418898558136	-120.2698797908018	
3.9135733896980103	221.16789863895121	-29.928175379222807	416.7894625598433	-29.92817537922284	420.9102425735693	-75.0724281724653	416.7894625598432	-75.07242817246518	-138.44191511933855	
3.9637474075146515	93.07572642206179	-128.9080571005291	481.656779069274	-128.90805710052922	373.8484414074144	-9.645386413066628	481.65677906927397	-9.645386413066511	-109.97387021859589	
4.013921425331293	78.162394909581	-145.55264822683162	489.01583815615817	-145.55264822683182	179.58101209727403	48.993220655555334	489.0158381561582	48.99322065555544	-78.34163054976604	
4.0640954431479335	173.1231871438737	-103.19504887714007	451.4195001736625	-103.19504887714024	-81.33162029826374	101.63220585980991	451.41950017366264	101.63220585981004	-93.850870624795	
4.114269460964575	328.9224343895718	-55.4821436058059	375.0530693096139	-55.48214360580613	-276.0675184634692	172.8838592828979	375.05306930961393	172.88385928289804	-185.2746687206145	
4.164443478781216	481.9449559547094	-55.03559495053544	261.61322410125763	-55.03559495053565	-298.28589376129275	269.72155405251954	261.61322410125774	269.72155405251976	-333.29335022389245	
4.214617496597858	567.5943863467755	-109.85893860733916	121.50245710564234	-109.8589386073393	-148.85988740977902	353.1192539600006	121.50245710564245	353.11925396000095	-462.70023077557636	
4.264791514414498	544.1790322240821	-159.0676892158516	-21.574948097305217	-159.0676892158517	69.50889320214195	363.59526468758173	-21.574948097305082	363.59526468758196	-476.830735467852	
4.31496553223114	427.599268984305	-114.63406122925078	-143.68294164672199	-114.63406122925082	246.8074997141988	281.25169073408404	-143.68294164672184	281.25169073408426	-324.92039037856017	
4.365139550047781	285.6015558611063	53.23742891523582	-232.6655102393994	53.23742891523584	350.9322898458984	152.80631203954664	-232.6655102393991	152.80631203954678	-47.21973520485589	
4.4153135678644215	185.06953638877542	279.0159550101062	-282.1475035461116	279.01595501010627	425.2154920215723	50.02637907841633	-282.14750354611124	50.02637907841636	249.13101502725524	
4.465487585681063	156.11646678896287	449.3783323412065	-282.96856723797396	449.3783323412067	522.6496042317222	6.350000110294545	-282.9685672379736	6.350000110294552	462.1785232713164	
4.515661603497704	199.77692431471533	477.09694391342396	-233.87511993963176	477.0969439134243	651.372402844195	1.3322436902862052	-233.8751199396315	1.3322436902861625	547.4785863024556	
4.565835621314346	294.2332887058328	345.9307404164193	-157.16616857506915	345.9307404164198	776.645010613433	-3.564618854011755	-157.16616857506898	-3.5646188540118615	517.5348420035867	
4.616009639130986	386.4755729200082	118.04454764172877	-86.99533186884128	118.04454764172917	863.5562138947319	-28.773273748659584	-86.9953318688412	-28.77327374865977	416.00022138736017	
4.666183656947628	410.498473027087	-94.78217511797708	-36.3024429836786	-94.78217511797682	918.9634876932746	-69.064336084379	-36.302442983678574	-69.06433608437924	298.75851698141616	
4.716357674764269	336.84542190815785	-189.76792747920544	15.45226764630118	-189.76792747920533	993.0501487639488	-103.77962118970248	15.452267646301202	-103.77962118970277	219.69039010842823	
4.7665316925809105	204.63415323356008	-125.02480139350456	95.74087527057905	-125.02480139350449	1130.6515980639506	-111.0594339975763	95.74087527057907	-111.05943399757658	211.2190304794647	
4.816705710397551	101.26082204381778	67.27091402870292	204.96126246883983	67.2709140287029	1317.8364384689344	-82.06432187280615	204.96126246883978	-82.06432187280623	268.7561600250615	
4.866879728214192	91.1830932475244	305.2717542959238	312.54715625522147	305.27175429592364	1481.3162816244542	-28.4787893969745	312.5471562552213	-28.478789396974427	353.6074385107188	
4.917053746030834	149.64100125673986	501.3535656595513	383.2682780356023	501.3535656595514	1539.713798611688	22.965602416005176	383.26827803560195	22.965602416005346	415.5858995840469	
4.967227763847474	172.0119609092944	602.1531592982406	403.8432327629924	602.1531592982406	1460.0315607675734	43.80336021837338	403.8432327629921	43.80336021837345	421.4760527726402	
5.017401781664116	61.20448900221095	601.7486517750124	386.5705087124189	601.7486517750124	1278.0411310442432	14.612680780693326	386.5705087124187	14.612680780693156	369.6792384630784	
5.067575799480757	-185.3143362723871	524.1618014657386	352.9646777911645	524.1618014657384	1064.6208040494323	-71.13762728351678	352.96467779116426	-71.13762728351722	284.0829294799244	
5.1177498172973985	-460.4484570357147	397.68647996366354	316.33202282253194	397.6864799636636	866.0484283218805	-207.64662591487223	316.3320228225316	-207.6466259148728	197.9385715475731	
5.167923835114039	-609.7322658742683	249.2119838546101	277.5587516648665	249.21198385461022	682.3760330480882	-375.94023893475213	277.55875166486624	-375.9402389347525	136.1282563274325	
5.218097852930681	-528.9965810034453	113.90359012194827	233.66040483145093	113.9035901219484	497.56300913462616	-541.2972962392043	233.66040483145068	-541.2972962392041	100.0169543712136	
5.268271870747322	-239.66861663417544	28.324965501384753	189.18691329062077	28.32496550138491	303.7361491585407	-659.6963308062702	189.18691329062062	-659.6963308062695	68.66473290402311	
