# Stress in units of bar (10^5 Pa)
# z	Sxx	Sxy	Sxz	Syx	Syy	Syz	Szx	Szy	Szz
0.0	-565.760335140264	144.84120369059593	-99.98279768269786	144.8412036905958	-458.4090881954631	250.7091257534041	-99.98279768269813	250.70912575340344	2.761131703877517	
0.05017401781664116	-539.4118380959446	161.25146979560728	-91.81890345494428	161.2514697956071	-413.46774674751447	253.25531818606242	-91.81890345494449	253.2553181860617	20.383852272757828	
0.10034803563328232	-502.61428488368875	177.17962431260267	-84.28450825182581	177.1796243126024	-353.5465244274728	251.16193598782854	-84.28450825182594	251.1619359878278	39.98725147489823	
0.15052205344992348	-458.28471537148795	191.26284766503812	-77.09650682735081	191.26284766503778	-280.55943924839755	244.08015467705957	-77.09650682735085	244.08015467705883	60.62494722043383	
0.20069607126656464	-409.502002954522	201.94876606752865	-69.78026204415904	201.94876606752814	-198.02542136716357	231.72089067880557	-69.78026204415903	231.72089067880484	81.45625540500335	
0.2508700890832058	-359.07960962318054	207.6259549192391	-61.71296215156243	207.6259549192384	-110.5907613564974	213.97708933671595	-61.712962151562316	213.97708933671524	101.85757504052759	
0.30104410689984695	-309.56124223757325	206.85829261760202	-52.19177758881226	206.85829261760122	-24.024576152378707	191.0542635855271	-52.19177758881202	191.05426358552648	121.46900990252495	
0.3512181247164881	-263.1048882799537	198.88331735266397	-40.545861633089814	198.88331735266297	55.22204044268554	163.55953074098204	-40.545861633089444	163.55953074098153	140.17957967940583	
0.40139214253312927	-221.1910847175092	183.6346439054024	-26.25984509967143	183.63464390540128	121.18312524652552	132.51977998957028	-26.259845099670933	132.51977998956986	158.05635407654782	
0.45156616034977043	-185.06368653337879	162.08321038284953	-9.067424416104794	162.08321038284834	168.58822309523742	99.28039665252604	-9.067424416104153	99.28039665252575	175.25249743433758	
0.5017401781664116	-155.07207651768258	136.119581824132	11.01554021526514	136.11958182413073	193.93701557025196	65.33828401157155	11.015540215265908	65.33828401157132	191.92523863897762	
0.5519141959830527	-131.09547512656627	108.51807705522339	33.672082154531395	108.51807705522211	195.82009513181967	32.13012284574782	33.67208215453228	32.130122845747735	208.19084716776717	
0.6020882137996939	-112.08106561918254	82.4836111224472	58.28712117375916	82.48361112244598	175.15249605725631	0.8557491521286416	58.28712117376017	0.8557491521286771	224.11286616918045	
0.6522622316163351	-96.5705824800728	61.39489801316162	84.04188035155126	61.39489801316041	134.95531134964693	-27.646582465585173	84.04188035155232	-27.646582465585038	239.72113159877173	
0.7024362494329762	-82.46442226716154	48.345684398703966	109.99423085460677	48.34568439870284	80.0540664221698	-52.93874507161193	109.99423085460788	-52.9387450716117	255.06870222330144	
0.7526102672496173	-67.8512761370248	45.68567769596387	135.2092654750364	45.685677695962895	16.109771541034092	-74.87316609487047	135.20926547503754	-74.87316609487016	270.2663097326786	
0.8027842850662585	-50.86999412038501	54.72048799081091	158.85392326102706	54.72048799081004	-50.730689279293316	-93.42763432131375	158.85392326102817	-93.42763432131339	285.5205901996723	
0.8529583028828998	-30.807686223517237	75.47911282197987	180.26015608111595	75.47911282197913	-114.80530466385059	-108.55211993368245	180.26015608111692	-108.55211993368205	301.0880415986603	
0.9031323206995409	-7.708341787211069	106.61043613708125	198.98413065563045	106.61043613708065	-171.4168352041068	-120.02532596435178	198.98413065563136	-120.02532596435135	317.23135870186366	
0.953306338516182	17.050893067457466	145.63876723172388	214.80696582328648	145.63876723172348	-217.06609087013788	-127.3997880156163	214.80696582328721	-127.39978801561587	334.1306609967882	
1.0034803563328232	40.82549283594824	189.08959123237477	227.7446141032187	189.0895912323744	-249.4924661821608	-130.07608889902775	227.74461410321925	-130.07608889902738	351.7934673812908	
1.0536543741494644	60.72008043880891	233.08505961506185	237.92589231699097	233.08505961506154	-267.63608235316696	-127.40854939490677	237.92589231699128	-127.40854939490639	369.96912535103104	
1.1038283919661054	73.5173113224738	273.54441724530074	245.59552174374681	273.5444172453005	-271.2564803047658	-118.91666806257675	245.59552174374699	-118.9166680625764	388.08005335062074	
1.1540024097827466	76.68385011429217	307.08846426058756	251.0206254028621	307.0884642605874	-260.7056738492448	-104.48668208169829	251.02062540286204	-104.48668208169799	405.18523072367867	
1.2041764275993878	69.07814479980298	330.90452008561743	254.4112173746841	330.9045200856173	-236.69131813583653	-84.46481611879037	254.41121737468399	-84.46481611879014	420.07588784712567	
1.254350445416029	51.034979320070136	343.4479089189391	255.91388288714896	343.44790891893905	-200.09858848383396	-59.74760241416563	255.91388288714862	-59.74760241416543	431.3489938943452	
1.3045244632326702	25.18593188350281	344.1242882689257	255.53946242599397	344.12428826892574	-151.80479186190422	-31.6985599199578	255.53946242599358	-31.69855991995764	437.6216318708185	
1.3546984810493112	-4.110071667305817	333.40917626528085	253.17747777961836	333.40917626528085	-92.98274817727568	-2.0122588629117573	253.1774777796179	-2.0122588629116365	437.76326683992033	
1.4048724988659524	-31.261318730218903	312.43297313087396	248.55149948598262	312.43297313087396	-24.89575618524964	27.50276014676497	248.55149948598216	27.50276014676504	431.14125258836043	
1.4550465166825937	-49.83886730289947	282.6872572994404	241.27831150503738	282.6872572994405	50.80966153184785	55.16728784208665	241.27831150503692	55.16728784208668	417.80209098214937	
1.5052205344992347	-53.77758875623408	245.89734314488504	230.91866408530692	245.89734314488516	132.31995649993667	79.61235064718196	230.91866408530652	79.61235064718193	398.60371349287016	
1.5553945523158759	-38.631650573659954	203.80266032252405	217.0772735135949	203.80266032252425	217.48795542808594	100.00158681006185	217.07727351359455	100.00158681006178	375.15519689232667	
1.605568570132517	-1.8367756110412756	157.85576374011976	199.52733718590474	157.85576374012004	303.92930667488326	116.08241914927625	199.5273371859045	116.08241914927615	349.69628605836533	
1.6557425879491583	56.39470262233524	109.48120168202452	178.3521290402772	109.48120168202482	389.38793474765527	128.16146941987768	178.35212904027705	128.16146941987756	324.7379229477359	
1.7059166057657995	133.11932076606735	60.1665736164568	154.03343714807644	60.16657361645717	471.56936319379065	136.99558137531048	154.03343714807636	136.99558137531034	302.69262076508204	
1.7560906235824405	223.352735538772	11.321594309417058	127.53848126566388	11.321594309417492	548.574723862536	143.60125864857335	127.5384812656639	143.6012586485732	285.5262547661874	
1.8062646413990817	320.67727197817743	-35.45492708494088	100.27054858907898	-35.45492708494042	618.677527301787	148.97640412954394	100.27054858907908	148.97640412954385	274.50588263839836	
1.856438659215723	418.43195847974994	-78.5164255563474	73.95227128665458	-78.51642555634697	680.902400097108	153.88358652808716	73.9522712866547	153.88358652808708	270.06619242036027	
1.906612677032364	510.59537784400425	-116.24710143217524	50.439227072519785	-116.24710143217486	734.64408294355	158.66274062760175	50.43922707251993	158.66274062760172	271.8570225074435	
1.9567866948490051	592.7023289953635	-147.27184496982153	31.504624413522844	-147.2718449698212	779.8951573996615	163.13965115598526	31.504624413522997	163.13965115598526	278.9060739827474	
2.0069607126656464	661.9261018738817	-170.42834226868868	18.586875970937122	-170.42834226868843	817.0371806679201	166.68330087693437	18.586875970937257	166.68330087693445	289.81776950722593	
2.0571347304822876	717.0907102181278	-185.15569329778134	12.592713114873888	-185.1556932977812	846.7336402231247	168.3871541396374	12.59271311487397	168.38715413963752	303.0439923392954	
2.107308748298929	758.2356710191958	-191.338032928453	13.811179132602113	-191.338032928453	869.5396213550599	167.34335820576214	13.81117913260217	167.34335820576234	317.10910434057126	
2.15748276611557	786.0158031662821	-189.36414583917585	21.840132981981352	-189.36414583917588	885.9264118725991	162.93611257927574	21.84013298198137	162.9361125792759	330.69885437109247	
2.2076567839322108	801.0808483267763	-179.9039355400267	35.67983356112367	-179.90393554002682	895.4464015580403	155.0173958397913	35.679833561123644	155.0173958397915	342.72142326603824	
2.257830801748852	803.9914027250104	-163.9159451743513	53.874572265153674	-163.91594517435135	897.288238161548	144.06601125190434	53.8745722651536	144.06601125190448	352.2996459231356	
2.308004819565493	794.9135290528942	-142.3513059441215	74.68815699940167	-142.35130594412158	889.7138869608691	131.15390229576207	74.68815699940154	131.1539022957622	358.72967799263137	
2.3581788373821344	774.1006365956163	-116.13659199605917	96.3561176343257	-116.13659199605922	870.7700280338927	117.7479735180141	96.35611763432556	117.74797351801419	361.4433789483911	
2.4083528551987756	742.2306804455148	-86.24633105900934	117.29415503502678	-86.24633105900932	838.6445474518664	105.42998456533476	117.29415503502659	105.42998456533476	359.9822528146559	
2.458526873015417	700.6413514730798	-53.683576419730215	136.31845666729734	-53.68357641973019	792.0121076667976	95.60781179418345	136.31845666729714	95.60781179418339	354.0051449177107	
2.508700890832058	651.938307339408	-19.70951755385122	152.7413093766181	-19.709517553851207	730.9730264436621	89.19207090334109	152.7413093766179	89.19207090334099	343.3604590828906	
2.5588749086486993	599.5751260395336	14.285001213109837	166.38489921960132	14.28500121310995	657.0090053403005	86.42671520767601	166.38489921960107	86.42671520767587	328.1524668943166	
2.6090489264653405	548.0279240646975	46.52793474537567	177.57958037397134	46.527934745375724	573.388978652854	86.81279842356732	177.5795803739711	86.8127984235671	308.87913815245054	
2.6592229442819812	501.93061441903393	75.25923596153805	186.99571638067619	75.25923596153808	484.6681789618485	89.17733060448192	186.99571638067596	89.1773306044817	286.4966557942099	
2.7093969620986225	465.8179822772626	98.73090571417045	195.41144607780637	98.73090571417046	396.34811652015026	91.91237788604565	195.4114460778061	91.91237788604539	262.48126269066705	
2.7595709799152637	443.20698375913	115.60593946750981	203.47480439805483	115.60593946750983	313.99551641979696	93.27314125876953	203.47480439805457	93.27314125876926	238.73985849464788	
2.809744997731905	436.19226485034096	125.05966870338722	211.44419843223974	125.05966870338722	242.46553315703048	91.72089122969601	211.44419843223952	91.72089122969571	217.4472395819305	
2.859919015548546	445.038761585765	127.0009967092474	219.0459200240249	127.00099670924733	185.2684613140899	86.24146674271205	219.04592002402464	86.24146674271174	200.75062944661798	
2.9100930333651873	468.3208097389551	121.90647588385141	225.48430263618025	121.90647588385139	144.0334013817825	76.54462936697297	225.48430263618008	76.54462936697267	190.4143922433492	
2.9602670511818285	502.76032698360575	110.89728439574817	229.47896282150512	110.89728439574809	118.47864345117513	63.145794214703656	229.47896282150495	63.145794214703365	187.4614657913254	
3.0104410689984693	544.1529767816452	95.35803001201515	229.5156030450858	95.35803001201512	106.28262901887142	47.261311619079514	229.5156030450857	47.26131161907925	191.92571077026062	
3.0606150868151105	587.6797692606922	76.94202648948568	224.12140785926164	76.94202648948563	103.72688605821207	30.613672539966032	224.12140785926158	30.613672539965776	202.74311231870897	
3.1107891046317517	628.3763517749787	57.319867301951234	212.2176035671398	57.31986730195119	106.14841349611672	15.08306734312877	212.2176035671398	15.083067343128548	217.8698907349541	
3.160963122448393	662.1638062537238	38.30727109758584	193.3159895244616	38.307271097585804	108.6295226291265	2.404650413732405	193.31598952446166	2.404650413732192	234.5752212667196	
3.211137140265034	685.9746731306757	21.60801719809997	167.72536721458883	21.608017198099905	106.98105102703725	-6.168046470718249	167.7253672145889	-6.168046470718419	249.84872146217216	
3.2613111580816754	697.9674263691718	8.918544514139011	136.62094192368477	8.918544514138997	98.00739456182077	-10.082297543176036	136.62094192368485	-10.082297543176175	260.84849229953045	
3.3114851758983166	697.7339508729916	1.684389332184871	101.94366410653393	1.6843893321848142	80.23998131746124	-9.544554457651657	101.94366410653402	-9.54455445765176	265.34325644887963	
3.361659193714958	685.8447738806444	1.037992641931183	66.31646953881744	1.0379926419311545	54.08591667192887	-5.4426640654987395	66.31646953881753	-5.442664065498828	261.970187874882	
3.411833211531599	664.006343461452	7.305164991001824	32.74240219678341	7.305164991001785	21.865025576425722	0.9061895417519352	32.74240219678351	0.9061895417518571	250.3264323466063	
3.46200722934824	634.465464926363	19.938224770116804	4.367800484853781	19.93822477011679	-12.803905463577692	8.020777489652001	4.367800484853884	8.020777489651959	230.89039928744813	
3.512181247164881	599.5685450788692	37.414029064080125	-15.881370309863684	37.41402906408015	-45.42614272983374	14.57443948360579	-15.881370309863572	14.574439483605774	204.84462183442045	
3.562355264981522	561.6881436300788	57.2074007935986	-25.679332707297938	57.20740079359861	-71.76713493348095	19.693624696723596	-25.679332707297846	19.693624696723564	173.7533490934635	
3.6125292827981634	523.1783418795017	76.25537628122986	-23.680055162445527	76.25537628122987	-88.51869576806459	23.110482408984712	-23.68005516244544	23.110482408984716	139.28939386378076	
3.6627033006148046	485.6111811432713	91.6185713162773	-9.81183212512012	91.61857131627733	-93.90684763427865	25.225758981448394	-9.811832125120048	25.22575898144842	102.97264398442385	
3.712877318431446	450.51966253348746	100.79824161072858	14.56292072070606	100.7982416107286	-88.26484313496792	26.992665068285326	14.562920720706174	26.99266506828536	66.11036206264512	
3.763051336248087	418.9498061395394	102.27124537133965	46.68124357027659	102.27124537133963	-73.40693273260402	29.68599110093136	46.68124357027669	29.685991100931417	29.783190065341053	
3.813225354064728	391.7572391401107	95.97694683086581	82.63714283518189	95.97694683086581	-52.350895818359106	34.58549274655152	82.637142835182	34.5854927465516	-5.1098792488365525	
3.863399371881369	369.52614397854427	83.16252391587089	117.87070634536018	83.16252391587088	-28.285442502282724	42.65457885156505	117.87070634536028	42.654578851565134	-37.68759137634616	
3.9135733896980103	352.6306494465038	66.08136376066642	147.78819062441147	66.08136376066635	-3.9233648947607094	54.23892765548816	147.78819062441156	54.23892765548827	-66.90554866188776	
3.9637474075146515	341.0235845957514	47.805387007264265	168.41694582570312	47.80538700726419	19.508800740474335	68.93473847368365	168.41694582570324	68.93473847368381	-91.48894729503736	
4.013921425331293	334.24767992611544	31.379727635378433	176.97583698087715	31.379727635378366	42.30125643014986	85.59370606918267	176.97583698087726	85.59370606918279	-109.84496613319256	
4.0640954431479335	331.2771826790295	19.519727639158276	172.28198243564015	19.519727639158234	66.22148620250393	102.45465068632906	172.28198243564026	102.45465068632915	-120.15713073862663	
4.114269460964575	330.88694545465546	14.163079564178354	154.91772613414844	14.163079564178283	94.00640291996302	117.46117737253972	154.91772613414858	117.46117737253982	-120.68976178821221	
4.164443478781216	331.3806014892159	16.21216685462169	127.03323168266579	16.21216685462162	128.578357378703	128.57851526827994	127.03323168266596	128.57851526828003	-110.11967121235537	
4.214617496597858	331.4494378635478	25.37687344772806	92.10069439878092	25.37687344772808	172.3915163751252	134.16696700778266	92.10069439878109	134.16696700778274	-87.86150288834041	
4.264791514414498	329.8061638954929	40.421045798341076	54.33683042548213	40.42104579834109	226.86473059704613	133.28154544075238	54.336830425482304	133.28154544075244	-54.45769494601254	
4.31496553223114	325.7969168699529	59.37966470730187	18.146973583621772	59.37966470730191	292.27544775801	125.76483186957383	18.146973583621964	125.76483186957387	-11.676442641818284	
4.365139550047781	319.2744601276886	79.97125106154795	-12.3757050937295	79.97125106154803	367.631715178544	112.26051986440588	-12.375705093729309	112.26051986440591	37.592071099170326	
4.4153135678644215	310.1643725018153	100.05148669672053	-33.94964612145162	100.05148669672063	450.92532491957564	94.05682622767965	-33.949646121451444	94.05682622767965	89.72720955014387	
4.465487585681063	298.6973365766038	118.19016026303677	-44.39239935101193	118.19016026303687	539.6366468961489	72.81940793442759	-44.39239935101179	72.81940793442756	140.89808605776028	
4.515661603497704	284.895826602735	133.79729708185067	-42.79468300784417	133.79729708185081	630.7060403064178	50.240733142892495	-42.79468300784406	50.24073314289245	187.67091497953484	
4.565835621314346	268.50965932582693	147.32438180199028	-29.444249010650626	147.32438180199046	720.9208471881848	27.80774066793321	-29.444249010650545	27.807740667933135	227.45086264575394	
4.616009639130986	249.008846630245	159.96419345779438	-5.706051335930891	159.96419345779452	806.9053885298595	6.491060149064708	-5.706051335930836	6.491060149064636	258.74023236681325	
4.666183656947628	225.66977270132693	173.18702136553324	26.168612424258974	173.1870213655334	884.9623069788436	-13.398851825888219	26.168612424259	-13.398851825888297	281.10172364025686	
4.716357674764269	197.90912158666072	188.24431127810107	63.359919671813216	188.24431127810118	951.3245605490633	-32.22538086549494	63.3599196718132	-32.22538086549502	294.9367495927525	
4.7665316925809105	165.39932598711954	205.51479065717174	102.76775858892438	205.51479065717186	1002.2369833234129	-50.96338076809674	102.76775858892432	-50.963380768096826	301.08310548801995	
4.816705710397551	128.29648437176596	224.40403459000325	141.3328534585047	224.40403459000333	1034.0126038650749	-71.00641703713444	141.3328534585046	-71.00641703713451	300.452463695787	
4.866879728214192	87.39756722291688	243.1176848399034	176.29239379821672	243.11768483990352	1043.605555198737	-93.88199349223008	176.2923937982166	-93.88199349223014	293.7704658086006	
4.917053746030834	44.133719238319834	259.3767100994667	205.40614521835727	259.37671009946683	1028.8288741278045	-120.87348181688621	205.4061452183571	-120.87348181688625	281.5107350302435	
4.967227763847474	0.25596639282460387	270.70939093906793	227.09599224847892	270.70939093906793	988.8016464660062	-152.640203117923	227.09599224847875	-152.64020311792297	263.97278130476263	
5.017401781664116	-42.47076563246746	275.21661137481146	240.5495122389002	275.21661137481146	924.0992441599858	-188.95823970416333	240.5495122389	-188.95823970416325	241.43240139884114	
5.067575799480757	-82.73683613906547	272.08965309921933	245.6819005414651	272.0896530992194	836.9402904320297	-228.52539377092833	245.68190054146493	-228.5253937709282	214.3123117597585	
5.1177498172973985	-120.15903764447813	261.789657823453	243.03934402113384	261.78965782345307	730.8242432443661	-269.036502976282	243.03934402113362	-269.03650297628184	183.30698437179697	
5.167923835114039	-155.56321537801563	246.02130160806692	233.6355424008933	246.02130160806698	610.4510466322047	-307.42423385344335	233.6355424008931	-307.42423385344307	149.40884306390873	
5.218097852930681	-191.20594702350925	227.23342245423834	218.73956550676203	227.23342245423837	480.9739448982185	-340.2817060313856	218.73956550676178	-340.2817060313852	113.86994626265832	
5.268271870747322	-230.15816492430872	208.3301155446757	199.6670904156134	208.33011554467575	347.78765525282927	-364.3669924248315	199.66709041561316	-364.36699242483104	78.07512136335271	
