# Stress in units of bar (10^5 Pa)
# z	Sxx	Sxy	Sxz	Syx	Syy	Syz	Szx	Szy	Szz
0.0	135.63679224975877	43.426659910552786	-29.729327764875254	43.42665991055304	302.0939288216231	-114.30352973394614	-29.729327764876814	-114.30352973394567	326.0942743389638	
0.0497581400811513	178.13089348049215	-4.0639071384773615	-29.011915423020298	-4.063907138476978	338.33111683499646	-113.80997230833844	-29.01191542302208	-113.8099723083381	389.1579263235452	
0.0995162801623026	181.73188678114528	-51.33893391334715	-27.803333207181414	-51.338933913346615	348.6583097072453	-112.78512026217822	-27.803333207183293	-112.78512026217805	443.134795115612	
0.1492744202434539	145.39743322265045	-91.70183290847481	-27.963387317127108	-91.70183290847415	334.8265897477541	-109.24669575066497	-27.963387317128916	-109.24669575066494	482.80620576278955	
0.1990325603246052	80.85293793289635	-120.59290406784768	-30.927335811349266	-120.59290406784686	304.88235595159387	-101.67664188186026	-30.92733581135087	-101.67664188186032	506.0093898221261	
0.24879070040575652	6.791332624020704	-135.90923577564067	-37.88160137610197	-135.90923577563981	269.24324701218904	-90.08395749223939	-37.88160137610327	-90.08395749223948	514.181789895109	
0.2985488404869078	-58.97953160790753	-137.0841934563718	-49.685764186717144	-137.08419345637094	237.26510619080682	-76.224748400565	-49.68576418671807	-76.22474840056502	511.0312995785154	
0.3483069805680591	-104.58455243305912	-124.1421633970476	-66.45910563256956	-124.14216339704683	215.8553821496211	-63.019023213577896	-66.45910563257013	-63.019023213577775	500.34124031192954	
0.3980651206492104	-125.10958291949296	-97.928587951711	-87.08852168105253	-97.92858795171034	208.40586314049455	-53.59354554694933	-87.08852168105278	-53.59354554694903	484.4692602928255	
0.4478232607303617	-121.13481491105125	-60.777804360119916	-109.12764439079795	-60.77780436011946	215.3163781920943	-50.39714198200387	-109.12764439079795	-50.39714198200342	464.4448366556567	
0.49758140081151303	-96.5598480016916	-17.270532741112163	-129.50295966398292	-17.27053274111202	234.7571827250494	-54.54253608653134	-129.50295966398278	-54.54253608653078	441.3690264794392	
0.5473395408926643	-57.17780313586941	26.32715381934375	-145.76086959848863	26.327153819343522	263.041611623465	-65.35912384147477	-145.76086959848837	-65.3591238414742	417.9713280985614	
0.5970976809738155	-9.01903505679688	63.64515404044468	-157.09147056216847	63.64515404044411	296.9035906340746	-80.24897499984107	-157.0914705621681	-80.24897499984061	399.09506196324753	
0.6468558210549669	44.06032210486603	89.71833160822436	-164.44010079145738	89.71833160822345	334.2577350011579	-95.0242946895697	-164.44010079145687	-95.02429468956942	390.65595650776214	
0.6966139611361182	101.3891491411801	101.89211915463848	-169.66820918193784	101.89211915463724	374.8127891852327	-104.77997691937924	-169.66820918193724	-104.77997691937924	397.3797597919349	
0.7463721012172695	164.94341705931004	100.03598318631728	-174.38874560835797	100.0359831863158	418.733164295562	-105.12567468480981	-174.38874560835725	-105.12567468481008	420.4907114577294	
0.7961302412984208	236.4288232800382	86.47378302943739	-179.3380617240278	86.4737830294358	464.11246666684974	-93.32844696989676	-179.338061724027	-93.32844696989736	456.5977650170193	
0.8458883813795721	314.29674368921474	65.54922659883546	-184.54166110903412	65.54922659883383	506.1572172725349	-69.06599668068444	-184.5416611090333	-69.06599668068536	498.6447255499297	
0.8956465214607234	393.3126517188293	42.98275108171736	-189.98531642581676	42.982751081715776	538.6085222168275	-34.68860155273408	-189.98531642581594	-34.68860155273532	538.7327544380797	
0.9454046615418747	466.7926643708482	23.52435806224824	-196.16995506538015	23.524358062246847	557.1292091315834	5.040496584720527	-196.16995506537933	5.040496584719044	571.3674696169194	
0.9951628016230261	530.0659829916298	9.196932031340111	-204.25737199174353	9.196932031339045	562.2427495548473	43.794473215933486	-204.25737199174267	43.79447321593188	595.3161323986989	
1.0449209417041774	581.3918851156927	-1.9801605424759146	-215.73141417652465	-1.980160542476625	558.1380423118555	75.1993106646408	-215.73141417652377	75.19931066463923	613.0702292320568	
1.0946790817853287	619.7492426883608	-14.341640446454495	-231.77749954775777	-14.341640446454782	549.2211331785121	94.58711597230935	-231.77749954775686	94.58711597230788	628.4362675509873	
1.14443722186648	640.7818785344626	-31.594918658332034	-252.32046616518932	-31.594918658331892	535.3300806939731	100.33844744684572	-252.32046616518846	100.33844744684447	643.8964697613912	
1.194195361947631	635.4625899710672	-53.79594568859406	-275.08780911989504	-53.79594568859358	509.90068819289536	93.96388527169591	-275.08780911989425	93.96388527169486	659.4444971938235	
1.2439535020287824	593.7841144886404	-77.04439317690785	-295.2258378700222	-77.04439317690714	462.6683009758076	78.82209833841455	-295.22583787002156	78.8220983384137	673.4241113450632	
1.2937116421099337	512.0841769729211	-95.76080607324296	-306.14273051270953	-95.76080607324201	385.74699845570615	58.07409776755798	-306.1427305127091	58.07409776755735	684.5973781567219	
1.343469782191085	398.97978238293945	-106.17491682683718	-301.74170224880237	-106.17491682683612	280.5512959701616	33.00496787067111	-301.74170224880214	33.00496787067069	693.8009370581859	
1.3932279222722364	275.32857094954204	-109.12242481023034	-279.12551720123827	-109.12242481022926	161.33454914608166	2.6056543967877115	-279.12551720123827	2.6056543967874823	704.0274409293256	
1.4429860623533877	166.88786414447404	-109.6973379958387	-240.30743191727294	-109.69733799583761	52.12741532887989	-35.31980210632444	-240.3074319172731	-35.319802106324516	718.4707757997403	
1.492744202434539	93.76657098422567	-115.09502869948798	-191.73527874633749	-115.09502869948719	-22.174311676954517	-81.83501799469794	-191.73527874633774	-81.83501799469798	737.6041708895075	
1.5425023425156903	62.63446947912621	-131.40153642578642	-141.49808404121904	-131.40153642578593	-46.074246253468544	-134.40040234223363	-141.49808404121933	-134.40040234223375	757.066855564213	
1.5922604825968416	66.10457539126392	-161.5022543407095	-95.35638664015646	-161.50225434070944	-18.932954575690474	-185.6960018718664	-95.35638664015661	-185.69600187186663	768.0567819062411	
1.642018622677993	88.9326478890108	-205.1787215858328	-53.650356199515564	-205.17872158583313	46.605938070666696	-224.99186356204856	-53.650356199515564	-224.99186356204893	760.8072598977442	
1.6917767627591442	116.57663134152057	-260.0040801083418	-11.090599751336224	-260.00408010834246	131.56479549521276	-242.03269826909374	-11.090599751336025	-242.03269826909428	729.6760069404041	
1.7415349028402956	139.1436604123189	-322.0006394769496	39.89154302965554	-322.0006394769506	217.75456928079598	-231.6165690268956	39.891543029655935	-231.6165690268962	676.9025623663906	
1.7912930429214469	151.20246774814615	-385.26395578533754	103.80027579494563	-385.2639557853387	292.55510264614605	-196.01679689282363	103.80027579494613	-196.01679689282417	612.3143998119863	
1.8410511830025982	148.1016055704768	-440.2659664252234	177.92442761877612	-440.26596642522463	348.819187351267	-143.70019634623668	177.92442761877666	-143.70019634623728	548.6264755705346	
1.8908093230837495	124.42520330736798	-473.6084443268019	252.59247762844626	-473.608444326803	385.36353641962273	-85.30290447263484	252.5924776284466	-85.30290447263538	494.9940873151014	
1.9405674631649008	77.76253601930605	-471.05515741057866	315.98535741240636	-471.0551574105798	405.51952077800996	-29.830485896009726	315.98535741240664	-29.830485896010217	452.94627712494207	
1.9903256032460521	14.788737109448618	-423.1976783168545	360.5225754931004	-423.19767831685544	417.0029478058074	16.5849907927644	360.52257549310053	16.584990792764035	417.3375766028538	
2.0400837433272034	-44.61379545098322	-331.41684024214817	386.291184245106	-331.41684024214896	430.54446594441254	49.45609695153003	386.29118424510597	49.4560969515298	381.6491952474569	
2.0898418834083548	-70.95975151887973	-210.02549722747324	399.13111494057665	-210.0254972274737	457.0585380904511	64.40672435018607	399.1311149405767	64.40672435018594	343.86608555033763	
2.139600023489506	-36.88027829086266	-82.96770806768501	405.3861184335887	-82.96770806768518	503.8101734695777	57.41265507987315	405.3861184335887	57.41265507987311	309.05532074818257	
2.1893581635706574	68.82972572919363	24.031521007890774	407.49561075540623	24.031521007890774	571.8760010266756	26.899841155138727	407.49561075540646	26.89984115513866	287.17438639911285	
2.2391163036518087	232.82793193734497	92.36324582747551	403.471723271994	92.36324582747574	654.4422329078927	-24.059279378574306	403.4717232719943	-24.059279378574384	287.3172588105546	
2.28887444373296	420.79140769096557	116.18029672124345	390.07420924723397	116.18029672124365	737.7444147370159	-87.27180456711991	390.0742092472344	-87.27180456712001	311.69346583796363	
2.3386325838141113	592.4239982847787	102.67063625380439	366.5510519059569	102.67063625380455	804.0143928094402	-151.06549335337306	366.5510519059575	-151.0654933533732	352.39449978461266	
2.388390723895262	719.8199096915713	67.77288186504879	335.8449109961566	67.772881865049	836.6117277688464	-203.18369103383338	335.84491099615724	-203.18369103383353	392.6319177502765	
2.4381488639764135	798.2425302029562	28.88696051358781	302.72222870507875	28.886960513587923	825.5960507942802	-233.7568146980327	302.72222870507926	-233.75681469803277	412.25964464211023	
2.487907004057565	843.8457398702765	-0.9013606871772382	270.72943294890723	-0.9013606871772168	772.6153429178238	-237.6841407988282	270.7294329489078	-237.6841407988282	395.39556104398696	
2.537665144138716	879.7282281105821	-16.784417223591618	240.71533165633525	-16.784417223591646	691.7573250315565	-216.17843046876897	240.7153316563357	-216.1784304687689	336.77707434755087	
2.5874232842198674	919.9048378717554	-21.853147834205892	212.11020556763032	-21.853147834205952	604.8196881310209	-176.9424416013353	212.11020556763066	-176.94244160133522	244.0076545801479	
2.6371814243010188	960.9546813891911	-23.607179420752416	185.56903037216904	-23.607179420752523	531.8522655262891	-132.0818173803746	185.56903037216938	-132.08181738037453	134.9470653774307	
2.68693956438217	984.605105986127	-28.39266809758206	164.21642288395878	-28.392668097582145	480.5181101839478	-93.92216310034702	164.216422883959	-93.92216310034698	32.22401659370378	
2.7366977044633214	969.4825513320391	-36.03129137889184	151.88812870152225	-36.03129137889192	441.3959407520267	-70.36449142335263	151.88812870152245	-70.36449142335263	-42.51943523143203	
2.7864558445444727	903.02477549629	-38.33002828926084	149.51530560598596	-38.330028289260895	392.1739160772268	-62.30144959300399	149.51530560598619	-62.30144959300403	-73.19012567281399	
2.836213984625624	787.8412922421078	-22.820341628205057	152.67346048597307	-22.82034162820503	310.73823112767263	-64.97958382063415	152.67346048597324	-64.97958382063419	-52.26175172972104	
2.8859721247067753	640.177496996122	19.89632438680377	152.44937888946035	19.896324386803826	189.69884775665423	-72.50336376310877	152.44937888946055	-72.50336376310881	17.638571303859777	
2.9357302647879266	482.95726505758273	89.03316652256188	139.13952465256264	89.0331665225621	41.69262313662521	-82.42896832859807	139.1395246525628	-82.42896832859805	124.12850982914831	
2.985488404869078	337.71907181661567	172.28421548838332	106.13493007564361	172.28421548838355	-107.47150650359458	-96.9273820756413	106.13493007564371	-96.92738207564125	248.20758049776387	
3.0352465449502293	218.1034346239639	250.4967236109688	51.95389565707718	250.49672361096898	-233.2664615152323	-119.40390602633947	51.953895657077226	-119.40390602633941	369.4591802250526	
3.0850046850313806	128.4437235892426	305.6111886909201	-19.805555399431015	305.61118869092036	-322.9433776417878	-148.93458139094307	-19.80555539943103	-148.93458139094295	471.29605414990544	
3.134762825112532	66.37357341990288	327.519966999414	-101.51809391759555	327.51996699941435	-376.25069052145113	-177.0465232114732	-101.51809391759562	-177.04652321147307	543.8860649910727	
3.184520965193683	26.59732349229415	315.8455738249246	-182.70722319403365	315.8455738249249	-398.43632132456116	-190.117313129196	-182.70722319403376	-190.1173131291959	583.9956802220194	
3.2342791052748345	3.668391159428822	277.37756506857363	-251.65940225042252	277.37756506857386	-394.52226234247036	-176.66067016813537	-251.6594022504227	-176.66067016813537	592.7366301893658	
3.284037245355986	-8.009370490359792	221.17728302320208	-297.89563040689575	221.17728302320222	-368.46408699602677	-134.6963281574326	-297.89563040689586	-134.6963281574325	573.0229317114724	
3.333795385437137	-14.149646440621282	155.21320461244582	-315.17142013434767	155.21320461244594	-326.31596575922856	-73.83016135014589	-315.17142013434784	-73.83016135014581	528.3445996135495	
3.3835535255182885	-20.02235910802912	85.6902772325089	-303.78386336880817	85.69027723250895	-278.52766642302737	-10.255495883967185	-303.7838633688083	-10.255495883967114	463.1177740314591	
3.43331166559944	-28.588687377850402	18.74399785680176	-270.65629083350615	18.743997856801737	-238.497184586806	41.86907258088783	-270.6562908335062	41.86907258088789	383.93637106680814	
3.483069805680591	-39.90860038196265	-38.36888815947025	-226.86331105023882	-38.36888815947033	-217.3701987798001	76.81434833398161	-226.86331105023888	76.81434833398163	300.64140151540965	
3.5328279457617424	-52.305278357423916	-77.75709890372666	-183.7200444424337	-77.75709890372673	-219.04625716276482	97.53629218544523	-183.7200444424337	97.53629218544523	225.70348081318735	
3.5825860858428937	-64.52438296960786	-94.14625436420465	-149.15900052492896	-94.14625436420476	-238.0468515325021	110.80062638209138	-149.15900052492896	110.80062638209138	171.5887680188606	
3.632344225924045	-76.1205643795704	-88.3760328214051	-126.02807491231422	-88.37603282140523	-261.25051109893286	121.49645754034712	-126.02807491231425	121.49645754034715	147.06348956199568	
3.6821023660051964	-85.41756087579677	-68.34750422903267	-112.92181282399213	-68.34750422903282	-272.70576435602004	130.1957732759991	-112.92181282399214	130.19577327599913	154.18776187267434	
3.7318605060863477	-87.58739805392496	-46.99674518303965	-106.724784946656	-46.996745183039785	-259.55723759292067	134.80871119150086	-106.72478494665603	134.80871119150092	187.61880822991353	
3.781618646167499	-74.70028028204433	-37.53217879221582	-105.1564133206246	-37.53217879221599	-216.42589244608385	134.2569434014111	-105.15641332062465	134.25694340141118	236.39749589008238	
3.8313767862486503	-38.908758399608686	-48.72760068225857	-107.91849705978707	-48.72760068225872	-146.6123016999338	131.07107226661049	-107.91849705978714	131.0710722666106	287.1570786753897	
3.8811349263298016	23.12297932618275	-82.49959813316703	-115.80930964261026	-82.49959813316718	-60.041426790618054	131.19628239301585	-115.80930964261033	131.19628239301596	327.2910876723979	
3.930893066410953	107.91535229030728	-133.90942147246773	-128.38311822545978	-133.90942147246787	31.429589243082138	141.68614239859215	-128.38311822545984	141.6861423985922	347.37391666082954	
3.9806512064921042	205.01649849987064	-193.6898673248868	-141.92016057873184	-193.68986732488696	117.13636555447752	167.80410201194647	-141.9201605787319	167.80410201194647	342.92678630281443	
4.030409346573255	300.16901723964946	-250.92394143908186	-149.4678032134604	-250.923941439082	189.830845844564	210.76616957709928	-149.46780321346046	210.76616957709922	315.5543604907836	
4.080167486654407	378.51421372298034	-295.65805488936894	-143.6567815013641	-295.65805488936917	244.24589202492004	266.61586075433337	-143.65678150136415	266.61586075433337	272.6225616397869	
4.129925626735558	431.53014399663977	-321.0340411271182	-121.17790918603346	-321.0340411271183	275.40696134374787	326.0118853014652	-121.17790918603349	326.0118853014651	224.69903268403687	
4.1796837668167095	458.8824474825001	-324.364053448233	-86.01203805091535	-324.36405344823305	279.6403575355909	375.38709874180324	-86.01203805091538	375.38709874180313	181.01864588658916	
4.22944190689786	471.8919992557661	-308.3071350039496	-48.710308335228206	-308.3071350039496	258.3026472456344	400.0343514259333	-48.710308335228255	400.0343514259331	145.08317859604188	
4.279200046979012	488.2366051301039	-281.1721416535462	-21.41733413358309	-281.1721416535461	220.1547839439228	389.0673751435528	-21.417334133583132	389.06737514355257	113.6403997906809	
4.328958187060163	523.7827487484266	-255.76548881437222	-11.291178746814026	-255.7654888143719	180.73230423282584	340.6195084003285	-11.291178746814069	340.6195084003283	80.36845482451335	
4.378716327141315	583.3699600600057	-245.46795977681916	-16.71273612047235	-245.46795977681873	155.6001058424407	264.27100118991365	-16.712736120472414	264.2710011899136	42.66248127744057	
4.428474467222466	659.4621986280453	-258.9318597484907	-28.696850813369622	-258.9318597484901	153.12644314750236	178.6238463622482	-28.69685081336968	178.6238463622481	7.153737166407558	
4.478232607303617	739.5401436139211	-295.26894095793955	-36.4678845870117	-295.2689409579388	172.08517481866966	104.547135844607	-36.46788458701171	104.54713584460693	-10.214902122428285	
4.527990747384768	816.6546345361147	-342.575073703517	-33.269703814839886	-342.5750737035162	204.98601775281662	57.582466636720895	-33.26970381483982	57.582466636720845	9.140682870080653	
4.57774888746592	892.8497294757128	-381.83982744854904	-18.77997295347496	-381.8398274485482	244.1642360848494	43.37302860069355	-18.779972953474797	43.373028600693516	75.94775769320233	
4.627507027547071	972.0265205148867	-394.28873261033664	2.5273211585264477	-394.2887326103359	284.17629913824175	57.64502355217582	2.5273211585266893	57.64502355217575	184.37817629323013	
4.677265167628223	1046.7075048901545	-369.4255633467095	24.902080311688383	-369.42556334670877	318.9363316489935	89.60747851354225	24.9020803116887	89.6074785135422	310.51303043291944	
4.7270233077093735	1093.21866801113	-308.62330552390404	43.84426945810653	-308.62330552390347	338.2791860611252	126.02448638845893	43.844269458106936	126.02448638845888	419.7530987116314	
4.776781447790524	1081.0713962573727	-224.06782715205196	56.472584772432725	-224.06782715205162	328.5573451384538	154.32056467153376	56.47258477243319	154.32056467153376	480.2228264697824	
4.826539587871676	990.9419618773627	-133.957694715013	60.67262676488642	-133.95769471501288	278.43271669084595	164.68370691267052	60.67262676488693	164.68370691267052	475.6570897338342	
4.876297727952827	827.302442383018	-56.765753212538826	54.61195329593523	-56.765753212538755	186.94741863656128	151.93929391981305	54.61195329593584	151.93929391981305	411.3067820671721	
4.926055868033979	617.1314894614667	-6.545347725984584	37.58828316950081	-6.545347725984811	67.73711906012002	117.15562485067304	37.588283169501466	117.15562485067306	310.3328474349233	
4.97581400811513	398.0919218855603	10.601499583403553	11.392673228305295	10.601499583403115	-52.96021891248222	67.71322933231107	11.392673228305952	67.71322933231106	202.95288416877182	
5.025572148196281	204.49909611785083	-2.2846961616479504	-19.35306703398486	-2.2846961616484336	-144.8380507751178	14.796479948411843	-19.353067033984246	14.796479948411836	114.33315085792111	
5.075330288277432	59.129435443926404	-33.602502675109406	-48.82930148086233	-33.602502675109875	-185.64474129416567	-31.21237753572577	-48.82930148086186	-31.21237753572578	57.380658682893696	
5.125088428358584	-28.35794629648632	-66.43703303567571	-72.86484924077457	-66.437033035676	-170.42121330936249	-65.18318121975545	-72.8648492407743	-65.18318121975537	32.954406514925275	
5.174846568439735	-58.77605520353211	-83.47665940119927	-90.98508245410837	-83.47665940119927	-113.70746586748096	-88.88950111665223	-90.98508245410838	-88.88950111665207	35.44776287420186	
