# Stress in units of bar (10^5 Pa)
# z	Sxx	Sxy	Sxz	Syx	Syy	Syz	Szx	Szy	Szz
0.0	293.50865680556365	-17.14023770633387	33.14779973134898	-17.14023770633494	432.9429716985597	92.22048526355903	33.147799731349174	92.2204852635589	330.42958292127355	
0.05520650884574483	272.48804811163603	12.095086177815382	30.01627267521183	12.095086177814448	458.9696703232608	90.05672099384864	30.01627267521212	90.05672099384859	331.5671184605489	
0.11041301769148966	249.08069869312487	45.986685400676436	26.153428338718243	45.98668540067563	468.210422630342	84.00418424156996	26.153428338718594	84.00418424156993	331.9613179168903	
0.1656195265372345	222.67479305411064	82.23390289654301	21.519406739826543	82.23390289654233	459.50896909886933	75.48226125339208	21.519406739826913	75.48226125339207	331.84100576571007	
0.22082603538297932	193.1861291266088	117.35322219880396	15.906223775480301	117.3532221988034	433.7162154172436	66.0704644860378	15.906223775480662	66.07046448603776	331.1967403773937	
0.27603254422872414	161.29286554305025	147.39548069106573	9.090449937723092	147.39548069106525	393.28421415612115	57.32307618447481	9.090449937723413	57.32307618447471	329.8226417262764	
0.331239053074469	128.4964461848415	168.8010223402455	1.0249719271990845	168.80102234024514	342.0503874053189	50.583162865378405	1.024971927199358	50.5831628653782	327.3644127585239	
0.3864455619202138	96.64917273501842	179.1157754898751	-7.993871086401617	179.11577548987484	284.1395075906086	46.83116708489353	-7.993871086401393	46.83116708489322	323.36122102689154	
0.44165207076595864	67.56966155839423	177.50634283596767	-17.271920268245456	177.5063428359676	223.57916517705561	46.61582745158165	-17.271920268245267	46.61582745158119	317.3092476727407	
0.4968585796117035	42.3443318792758	164.80586284425254	-25.809567269721867	164.80586284425254	163.61609694551032	50.055088363267444	-25.809567269721704	50.05508836326683	308.77157861560397	
0.5520650884574483	21.35047319470712	143.10669641971253	-32.53386946984216	143.10669641971256	106.51952356710811	56.87140284799274	-32.533869469842	56.87140284799198	297.5417567925896	
0.6072715973031931	4.072888601276773	115.17288618289483	-36.61104304349583	115.17288618289489	53.62987086900938	66.43889626267524	-36.61104304349567	66.43889626267433	283.80997388223386	
0.662478106148938	-10.616564694812027	83.74842355110991	-37.666330142632745	83.74842355110994	5.115651831932624	77.80111639642098	-37.66633014263256	77.80111639641993	268.2328821020221	
0.7176846149946828	-24.20796094906082	51.16514035590243	-35.88904321300951	51.16514035590238	-39.748280764739405	89.71138873520908	-35.88904321300932	89.71138873520795	251.87832256370586	
0.7728911238404276	-38.14765671461346	19.046758981895938	-31.929762063078297	19.046758981895785	-82.21019006636512	100.70401558757108	-31.929762063078115	100.7040155875699	235.99662042449293	
0.8280976326861724	-53.87066081108761	-11.36683436642814	-26.681833902016947	-11.3668343664284	-123.72390476259935	109.2424556707993	-26.681833902016777	109.24245567079814	221.70939310880027	
0.8833041415319173	-72.32215972529015	-39.17501675801274	-21.034349952255592	-39.17501675801306	-164.927202355125	113.9318167134546	-21.034349952255447	113.93181671345349	209.6762892925295	
0.9385106503776621	-94.09967691295334	-63.43523278945243	-15.687728000053527	-63.435232789452776	-204.97088965221405	113.80372357656374	-15.687728000053431	113.80372357656269	199.9214906119478	
0.993717159223407	-119.17552869160934	-83.10840379219297	-11.103580441410287	-83.10840379219327	-241.36165554409754	108.6037531021849	-11.103580441410262	108.60375310218399	191.8843940870845	
1.0489236680691518	-146.85597130494313	-97.1755534123792	-7.574501343794874	-97.17555341237936	-269.9959927053123	98.95571318622119	-7.574501343794932	98.95571318622044	184.65486207745982	
1.1041301769148966	-175.59836237231437	-104.94937098847588	-5.3667551723118585	-104.94937098847588	-286.2865393419805	86.38951798858834	-5.3667551723120095	86.38951798858778	177.34750244900428	
1.1593366857606415	-203.13751921384716	-106.40395318853227	-4.812549039167514	-106.4039531885321	-286.7057399120992	73.1753543143371	-4.812549039167763	73.17535431433677	169.39822030362367	
1.2145431946063863	-226.5240400416845	-102.3653234900076	-6.311771587524043	-102.3653234900072	-269.81432103305616	61.87912578917479	-6.311771587524375	61.87912578917472	160.68513783278158	
1.269749703452131	-242.71843682452374	-94.29104215424604	-10.261374200918366	-94.2910421542455	-237.4092405885	54.818074409839134	-10.261374200918757	54.81807440983933	151.53537914585462	
1.324956212297876	-249.0287810624348	-84.31776578666714	-16.958117356815535	-84.3177657866665	-194.15712662823168	53.47212344016581	-16.958117356815965	53.47212344016627	142.63744245391797	
1.3801627211436207	-243.8885924728442	-74.60797752248762	-26.540284065602787	-74.60797752248698	-146.73177375386229	58.00499942589375	-26.540284065603252	58.00499942589446	134.86744427998548	
1.4353692299893657	-226.88541230034912	-67.18294721992241	-39.03160458717666	-67.18294721992183	-101.8559398358346	67.13829712295502	-39.03160458717712	67.13829712295595	129.19924956076468	
1.4905757388351104	-198.99539933753243	-63.70367887657952	-54.43433014940321	-63.70367887657898	-64.71006004052141	78.43664281941898	-54.434330149403664	78.43664281942006	126.60789535396987	
1.5457822476808551	-161.79697254422774	-65.37052469608267	-72.76949607398696	-65.37052469608227	-37.43642016590229	88.92779469744761	-72.76949607398738	88.9277946974488	127.92694827709833	
1.6009887565266	-117.01200992366739	-72.80358320297451	-93.97075762086804	-72.80358320297417	-18.547744765472828	95.95185725605214	-93.97075762086844	95.95185725605336	133.57993686400835	
1.6561952653723448	-65.72648369457572	-86.01356352342675	-117.60842633167847	-86.01356352342651	-3.736905961264398	97.90526588121992	-117.60842633167879	97.90526588122108	143.32048862739904	
1.7114017742180898	-7.988416836055052	-104.31128093074354	-142.5607672301593	-104.31128093074334	13.086624681302823	94.62177662566314	-142.56076723015957	94.62177662566425	156.08787767313132	
1.7666082830638346	56.62278757464199	-126.21253866943123	-166.80875349771475	-126.21253866943104	38.01664777139709	87.25956361185804	-166.80875349771492	87.25956361185901	170.10750071647533	
1.8218147919095793	128.68958117673293	-149.73818911091817	-187.5580064416004	-149.73818911091803	75.39838058984424	77.77505423700062	-187.55800644160055	77.77505423700148	183.36276116784444	
1.8770213007553243	208.0055901279482	-172.74640613189217	-201.73989893287893	-172.746406131892	127.0156961658968	68.16480414389395	-201.73989893287904	68.16480414389466	194.24780172032968	
1.932227809601069	292.9246184746819	-193.43897108941104	-206.77297330121766	-193.43897108941087	191.4634156641772	59.80791339719602	-206.77297330121775	59.8079133971966	202.16038858843797	
1.987434318446814	380.28798579712935	-210.72841650509935	-201.31554756910094	-210.7284165050991	264.54203036312526	53.168801246049355	-201.31554756910094	53.168801246049796	207.79377740431585	
2.042640827292559	465.68631718464667	-224.29154977391912	-185.73810317459498	-224.2915497739188	339.74933965988004	47.89266114106377	-185.73810317459504	47.89266114106413	212.9168926760087	
2.0978473361383037	543.8372612233934	-234.14697639118106	-162.10168353925823	-234.14697639118066	409.3293567744152	43.19770614530382	-162.10168353925832	43.197706145304075	219.65537610679615	
2.1530538449840484	609.2255407988205	-240.30476983566285	-133.66615100093188	-240.30476983566257	465.2587427757079	38.33541972913748	-133.66615100093196	38.33541972913767	229.51871811634513	
2.208260353829793	656.7884727650036	-242.2005904730014	-104.13456144597565	-242.2005904730011	500.62037615459593	32.91882273768651	-104.13456144597575	32.91882273768664	242.53225963045105	
2.263466862675538	682.3703750689201	-238.80659812228953	-76.91873600980834	-238.80659812228922	510.5865479329823	26.994257285759442	-76.91873600980843	26.994257285759517	256.8057285331713	
2.318673371521283	683.4661280930648	-228.8855324123264	-54.63453830936219	-228.88553241232614	493.50603950383254	20.83452849672134	-54.6345383093623	20.834528496721376	268.7433844339638	
2.373879880367028	659.7319511886208	-211.62684782958013	-38.90114051127222	-211.62684782957984	451.4922258766022	14.677896582738	-38.9011405112723	14.67789658273799	273.859616301934	
2.4290863892127725	613.5684849348195	-187.20302817385829	-30.40924182869209	-187.2030281738581	390.23909124604853	8.473806061054894	-30.409241828692167	8.473806061054868	267.98919757668165	
2.4842928980585173	550.1862966001693	-156.96872420993634	-29.09402078257082	-156.9687242099361	318.2550096488172	1.809413038164557	-29.094020782570865	1.8094130381645108	248.5418858756834	
2.539499406904262	477.224274654561	-123.29298055414964	-34.26621348861694	-123.29298055414938	245.15856946185326	-6.035859357324458	-34.26621348861694	-6.035859357324528	215.35151867480886	
2.594705915750007	403.5759060106964	-89.01972367355867	-44.638913701336755	-89.01972367355846	179.81672507282235	-15.928534237599393	-44.63891370133674	-15.928534237599479	170.95305234173054	
2.649912424595752	338.0520163454122	-56.88767841200185	-58.310575372491215	-56.88767841200163	128.79980583693578	-28.629656964459194	-58.31057537249117	-28.62965696445929	120.25123925535935	
2.7051189334414967	287.43101948450646	-28.88999388424136	-72.8242499019916	-28.889993884241168	95.18098613490301	-44.61610567227561	-72.82424990199156	-44.61610567227573	69.72925402190376	
2.7603254422872414	255.5886371601204	-6.31125704661674	-85.44919878661753	-6.311257046616543	78.57534899456842	-63.94218380168522	-85.44919878661747	-63.94218380168534	26.333556502811426	
2.815531951132986	242.74136033642105	10.262557233830268	-93.61203089909426	10.262557233830423	76.22396993422745	-86.19466610317197	-93.61203089909421	-86.1946661031721	-3.675875251780191	
2.8707384599787313	245.7903591798721	20.723785270895643	-95.42825549975515	20.723785270895778	83.73280126054402	-110.44130317646491	-95.4282554997551	-110.44130317646506	-15.795774009637562	
2.925944968824476	259.1144655975903	25.27602184383465	-90.12012203958187	25.276021843834762	96.62661078427368	-135.30769084475125	-90.12012203958182	-135.3076908447514	-8.165980293489739	
2.981151477670221	275.8535205020851	24.3347069546844	-78.26314951719968	24.334706954684464	110.77832691326887	-159.05204648770368	-78.26314951719961	-159.05204648770382	17.979687322848577	
3.0363579865159656	288.9555542245014	18.680016789685794	-61.650765809881705	18.680016789685837	122.40428092305321	-179.67506145762837	-61.650765809881655	-179.67506145762854	58.41563010381043	
3.0915644953617103	292.30793468301437	9.426869877169686	-42.87908717538118	9.426869877169743	128.32633239767688	-195.18891522653334	-42.879087175381144	-195.18891522653348	106.60411403746089	
3.1467710042074555	281.33687221410173	-1.6321097065465118	-24.768012440632077	-1.6321097065464834	125.61014020819485	-203.898442920114	-24.768012440632052	-203.89844292011412	154.93831365194686	
3.2019775130532	253.5125512138785	-12.522832535064532	-9.745534551253323	-12.522832535064499	112.27255829060289	-204.71547942457585	-9.74553455125331	-204.71547942457593	196.3320989209208	
3.257184021898945	208.51082263036704	-21.117360224188815	0.6951475524228705	-21.117360224188793	87.65769483755065	-197.45423596428105	0.6951475524228687	-197.4542359642811	225.57430585713544	
3.3123905307446897	148.49590867922535	-25.677128641144037	6.29937509170621	-25.677128641144044	53.194929334006034	-182.95369145596558	6.29937509170621	-182.95369145596558	240.16973037124035	
3.3675970395904344	77.87558314063065	-25.274457116372783	8.070084733637525	-25.274457116372776	12.331318555181394	-162.98708562546574	8.070084733637508	-162.98708562546574	240.50951027729656	
3.4228035484361796	2.937205350194237	-20.042471349585	7.905954027131239	-20.042471349585	-29.967467908112525	-139.93050631124373	7.905954027131226	-139.93050631124368	229.3299409555272	
3.4780100572819244	-69.02069424316534	-11.269855719085792	7.995857986428938	-11.269855719085786	-67.96197986859235	-116.18771905790841	7.995857986428938	-116.18771905790834	210.71959423374545	
3.533216566127669	-130.93342303933522	-1.113008004498294	10.098557970102526	-1.113008004498294	-96.54146153423822	-93.57980727138988	10.098557970102533	-93.57980727138983	188.99824199287468	
3.588423074973414	-176.98494239804938	7.808992997013416	14.997587547851847	7.808992997013423	-111.7704693738459	-72.88118667198177	14.997587547851879	-72.88118667198175	167.76923224379152	
3.6436295838191586	-203.825254664057	13.182811100218494	22.303877864196505	13.182811100218508	-111.37518260445486	-53.65947989260984	22.303877864196544	-53.65947989260981	149.293056972219	
3.6988360926649038	-210.51979644215913	13.456197488659821	30.67910109595	13.456197488659862	-94.84797221831604	-34.49520955610813	30.679101095950053	-34.495209556108115	134.35224933253417	
3.7540426015106485	-198.48378403738576	8.12542130267349	38.37539306739493	8.125421302673523	-63.17371643335569	-13.605366502215755	38.37539306739499	-13.605366502215745	122.52663924754088	
3.8092491103563932	-170.58552388394668	-2.1734912514874125	43.81531214315608	-2.1734912514873663	-18.633906622702952	10.37765405420501	43.81531214315613	10.377654054205014	112.77266661263067	
3.864455619202138	-130.48996569885765	-15.879484381500358	46.051858429989096	-15.879484381500323	35.299173921622966	37.68573966453526	46.051858429989124	37.68573966453528	104.13227476551019	
3.9196621280478827	-82.10420852024382	-30.89950093432664	44.92263318506591	-30.899500934326603	93.99644549301188	67.11241476794906	44.92263318506592	67.11241476794906	96.26704694663763	
3.974868636893628	-29.50513619714056	-44.85090698697653	40.9135400817491	-44.8509069869765	151.74649557746315	96.20326718411613	40.91354008174905	96.20326718411613	89.6208712650466	
4.030075145739373	22.9962320844634	-55.58528286326472	34.87210015167863	-55.58528286326468	202.29561617882302	121.87430340928418	34.87210015167855	121.87430340928421	85.13196842012673	
4.085281654585118	70.98867120206518	-61.43975798384196	27.730460211366786	-61.439757983841915	239.5058048578427	141.3055821470024	27.730460211366662	141.30558214700244	83.71043646568452	
4.140488163430862	110.28813663763097	-61.68570062325145	20.318431788640414	-61.685700623251385	258.2930304723727	152.7584654072554	20.318431788640247	152.75846540725544	85.8085456868022	
4.195694672276607	137.71387783775083	-56.62782349247845	13.310193960374288	-56.627823492478385	255.456273729656	156.0135123558993	13.310193960374072	156.01351235589937	91.20707010923613	
4.250901181122352	151.69602229547513	-47.49011445109028	7.271648745304908	-47.49011445109018	230.3982708326385	152.34278977958638	7.2716487453046526	152.3427897795865	99.18124053180851	
4.306107689968097	152.85726733128084	-36.14861086512141	2.755452397349825	-36.14861086512132	185.46804349860992	144.08357136694738	2.7554523973495693	144.08357136694747	108.80296162847054	
4.361314198813842	143.77132227772572	-24.350333636993156	0.3368361912739193	-24.350333636993014	125.55283341362707	134.00663476191835	0.3368361912736626	134.00663476191846	119.23496330727738	
4.416520707659586	128.46397068772598	-13.174917624781383	0.5264567486300589	-13.17491762478128	57.49182402673485	124.72589042443121	0.5264567486298137	124.72589042443136	129.7780813856688	
4.4717272165053314	111.49728185725242	-2.6978195145834576	3.6531781320180325	-2.697819514583326	-10.97844265864471	118.17749991944356	3.6531781320178096	118.17749991944369	139.65248512011456	
4.526933725351076	97.13338678379336	7.856060663165927	9.683143226744434	7.856060663166048	-72.08579602066355	115.3778669099081	9.683143226744214	115.3778669099082	147.76290334885056	
4.582140234196821	88.54559631186446	19.54384854956016	18.123661871563996	19.543848549560295	-118.88992086985111	116.33466927621716	18.123661871563826	116.33466927621726	152.67748589094356	
4.637346743042566	87.82856769331038	33.02182333375132	28.049750384245385	33.02182333375144	-146.09307329413124	120.10531688465085	28.04975038424521	120.10531688465096	152.8468734840955	
4.69255325188831	95.93058393655173	47.862797692844985	38.29490662057791	47.8627976928451	-150.22344418629135	124.96127738240133	38.294906620577734	124.96127738240142	147.20011244711014	
4.747759760734056	113.03559875276366	62.48536120195162	47.749042147479464	62.4853612019517	-130.27510668653943	128.74350803504285	47.74904214747929	128.7435080350429	135.72808568155622	
4.8029662695798	138.69485842549946	74.41357707697316	55.70753774681563	74.41357707697325	-87.63511658636932	129.26653226483648	55.70753774681542	129.26653226483648	119.82553158882833	
4.858172778425545	172.00497202266067	81.01242002824058	61.966811462817766	81.01242002824068	-26.22908703607165	124.8599410362745	61.96681146281754	124.85994103627449	102.18820479859522	
4.91337928727129	211.41237424241663	80.22861137553008	66.79860213627023	80.22861137553022	48.04449935061869	114.77673990259726	66.79860213626999	114.7767399025972	86.23292345772212	
4.9685857961170345	254.8450503152127	71.22872897772535	70.79154729465701	71.22872897772555	128.35950386374046	99.45290746309567	70.79154729465674	99.45290746309556	75.26216331523459	
5.02379230496278	299.33998662641466	54.624947563185685	74.59409447609666	54.624947563185934	208.12891374608944	80.42765339687418	74.59409447609637	80.42765339687405	71.63511583134347	
5.078998813808524	341.7059156974976	32.207614709462945	78.68532622105924	32.207614709463286	282.4657584582143	59.981055815922346	78.68532622105894	59.981055815922176	76.27656618178335	
5.134205322654269	378.62471791810117	6.495178322806623	83.16352783108786	6.4951783228071065	348.8395875438559	40.55649391727656	83.16352783108758	40.55649391727636	88.60885297805939	
5.189411831500014	407.40528093087585	-19.96553710898847	87.63642222968163	-19.965537108987917	407.0923164772225	24.181472855426982	87.6364222296814	24.181472855426755	106.91012964602183	
5.244618340345759	426.23763363389844	-45.03692521624838	91.23530273462622	-45.036925216247724	458.51910984205074	12.025749729835237	91.23530273462606	12.025749729834985	128.92622092449216	
5.299824849191504	434.1177062701528	-67.16932625572541	92.74336795818078	-67.16932625572476	504.29957143809156	4.232377213410142	92.7433679581807	4.232377213409845	152.42697337157193	
5.355031358037248	430.7480821454558	-85.28616670889397	90.90653332369261	-85.28616670889333	544.3066295518435	0.0680766136196782	90.90653332369263	0.06807661361936379	175.57909730038844	
5.410237866882993	415.9960073648059	-98.5168792592465	84.78189013866373	-98.51687925924597	576.2477454540749	-1.7193180380052056	84.78189013866387	-1.719318038005527	196.99474896042744	
5.4654443757287385	389.8867078084419	-106.05450297266273	74.06064959964247	-106.0545029726623	596.1385247723723	-2.4926563565745257	74.06064959964274	-2.4926563565748436	215.59917365869708	
5.520650884574483	352.73703893939546	-107.19265646126756	59.22122312210385	-107.19265646126732	599.2652305193037	-3.3804230514987	59.22122312210422	-3.3804230514990037	230.4687408135374	
5.575857393420228	305.82975583051046	-101.46988802634125	41.429443188096066	-101.46988802634121	581.8621889264372	-5.068415009796009	41.42944318809653	-5.068415009796285	240.7913096390442	
5.631063902265972	251.9132882979752	-89.13913435104469	22.24568731844978	-89.13913435104479	542.4218637618541	-7.770546393596638	22.245687318450294	-7.770546393596897	245.9708810625449	
5.6862704111117175	195.30158902939485	-71.33229429451674	3.212471597475748	-71.33229429451696	482.5168303656984	-11.314179282299236	3.2124715974762807	-11.314179282299488	245.82878298397156	
5.741476919957463	141.37903758148988	-49.989866243742966	-14.465044568630793	-49.989866243743236	406.83231452256774	-15.320887987605186	-14.46504456863029	-15.32088798760544	240.77545907295286	
