# Stress in units of bar (10^5 Pa)
# z	Sxx	Sxy	Sxz	Syx	Syy	Syz	Szx	Szy	Szz
0.0	458.0087164246802	-10.061692212408573	-175.5494266146768	-10.061692212409085	-11.320411506788297	-3.5715794912854304	-175.54942661467743	-3.5715794912857834	347.7851779718683	
0.05013593442880424	579.3126886621412	-35.55598626803552	-196.02974956389895	-35.555986268035994	8.056113829048062	-30.411788478062938	-196.02974956389966	-30.411788478063393	337.4788581868496	
0.10027186885760848	669.2715281155361	-69.35083308625698	-216.7638616130061	-69.35083308625735	27.3310248863418	-54.6334548532724	-216.76386161300672	-54.63345485327295	323.24185370789087	
0.15040780328641273	719.1542550335533	-105.23930937517858	-236.3544231422958	-105.23930937517879	41.697170293563886	-74.778917941708	-236.35442314229638	-74.77891794170866	305.7943332314432	
0.20054373771521697	725.7186871885026	-136.6024663290888	-253.48932839211315	-136.60246632908886	47.604794871189306	-90.09565733093454	-253.48932839211363	-90.09565733093527	286.48773960177766	
0.2506796721440212	691.6788450159147	-157.5767438230685	-267.1537712044098	-157.57674382306828	43.83088414132365	-100.59302104367231	-267.1537712044102	-100.59302104367303	267.22527659294974	
0.30081560657282547	625.0485252145506	-164.1124333402331	-276.8421715497015	-164.11243334023274	31.444005996253395	-106.80987294603135	-276.8421715497018	-106.80987294603203	250.22783739786126	
0.3509515410016297	537.6772286907624	-154.35206374913082	-282.7276272645277	-154.35206374913022	13.263907197274023	-109.42815978477772	-282.727627264528	-109.42815978477832	237.57643426972092	
0.40108747543043394	442.0117153047754	-129.0727206682175	-285.73704582959516	-129.07272066821673	-6.769173527094225	-108.86754630370413	-285.73704582959533	-108.86754630370457	230.66386983610644	
0.4512234098592382	349.0244698930369	-91.40524885331735	-287.46237317374187	-91.40524885331652	-24.46267069492771	-105.06507239516995	-287.462373173742	-105.06507239517032	229.7416840623806	
0.5013593442880424	266.0797680796814	-46.126039051293034	-289.841964718769	-46.12603905129219	-36.2994098692397	-97.53172327347279	-289.8419647187691	-97.53172327347303	233.72279300080692	
0.5514952787168467	196.397041056566	1.1333654522920398	-294.71205161301185	1.1333654522927787	-39.24212213617483	-85.68259137095993	-294.71205161301185	-85.6825913709601	240.43535352695437	
0.6016312131456509	139.82815108167506	44.97576124269342	-303.274944293708	44.97576124269411	-31.474059919753937	-69.31123469056143	-303.2749442937081	-69.31123469056158	247.26963287116516	
0.6517671475744552	93.90258346635525	80.67841428305115	-315.73419031012287	80.67841428305167	-12.155326100868274	-48.988763064289216	-315.734190310123	-48.988763064289344	252.0072233792901	
0.7019030820032593	55.90963644604664	104.82024477067746	-331.22764267006016	104.82024477067772	18.31002359676063	-26.241286931833148	-331.22764267006033	-26.241286931833326	253.56827418135	
0.7520390164320636	23.58034656877077	115.10937738374699	-348.06813288405556	115.10937738374702	58.1611248027215	-3.3749475727039724	-348.06813288405573	-3.374947572704237	252.40598020946072	
0.8021749508608679	-3.793100346076912	110.37550712469833	-364.2153781140191	110.37550712469819	104.85765484551338	17.034289345805732	-364.2153781140193	17.034289345805355	250.4563155807088	
0.8523108852896721	-25.78257172261837	90.5119614566596	-377.8060845866825	90.51196145665924	154.99784324901728	32.81042297536999	-377.8060845866829	32.81042297536949	250.60114014668474	
0.9024468197184764	-41.200703626554215	56.50191605609898	-387.48871276663095	56.501916056098494	205.08988970714293	42.80645119666787	-387.48871276663147	42.80645119666724	255.8045984472878	
0.9525827541472806	-49.13578905333422	10.455081863003155	-392.59825775000735	10.455081863002519	251.77509233933606	47.17062922725118	-392.598257750008	47.17062922725043	268.1936393616907	
1.0027186885760848	-49.89695759505251	-44.261407449519226	-393.0549723615894	-44.26140744951993	291.68585216171334	47.25790542881788	-393.0549723615903	47.25790542881704	288.26469606450144	
1.0528546230048892	-45.65392389642916	-103.24004668196447	-389.11525385657546	-103.24004668196524	321.34990957990004	45.09169065016479	-389.1152538565765	45.09169065016386	314.5117805165381	
1.1029905574336933	-40.11959170861863	-161.34808526031543	-381.09587041602	-161.34808526031628	337.26448741076416	42.63190233902241	-381.0958704160211	42.63190233902141	343.55607951416135	
1.1531264918624975	-38.27321081240241	-213.1745086584197	-369.2184896040481	-213.17450865842062	336.16790640247507	41.16499181366534	-369.2184896040494	41.16499181366434	370.81379555319876	
1.2032624262913019	-44.56302825121796	-254.05259260073763	-353.6156564114484	-254.0525926007386	316.65521667896877	41.02382487364879	-353.6156564114498	41.023824873647776	391.5553837580344	
1.253398360720106	-61.57491912536549	-280.52732722546824	-334.39323641669074	-280.5273272254692	279.8372854751204	41.69724938045394	-334.39323641669216	41.697249380452945	402.1357335269788	
1.3035342951489104	-88.82666697064367	-290.91717614657125	-311.7616561209576	-290.9171761465722	230.67834090174048	42.3267200425838	-311.76165612095895	42.326720042582835	401.02902163394344	
1.3536702295777145	-122.69064119946192	-285.8522033942154	-286.1941665619131	-285.85220339421625	177.22598549504687	42.375322927149895	-286.19416656191436	42.37532292714897	389.40016837188324	
1.4038061640065187	-156.84655552124372	-268.1459629223814	-258.5185850133296	-268.1459629223821	129.4141900047112	42.11828434644771	-258.5185850133306	42.11828434644681	371.0005453253683	
1.453942098435323	-184.02280614344275	-242.4003817874454	-229.90249220591184	-242.400381787446	96.39614248689657	42.860379838127	-229.9024922059126	42.86037983812613	351.43408967072844	
1.5040780328641272	-197.79638444056238	-214.13287208106212	-201.73800600978265	-214.1328720810625	84.1818759248265	46.734574636516044	-201.73800600978313	46.73457463651519	336.9860160194947	
1.5542139672929316	-194.13231009193763	-188.88486905565395	-175.40387795696194	-188.88486905565412	93.94633184284694	56.076203540092976	-175.4038779569621	56.076203540092095	333.25556030984035	
1.6043499017217357	-172.31065586686725	-171.1210093532846	-151.9283680826424	-171.12100935328462	121.78829032139134	72.65031474379808	-151.92836808264235	72.65031474379717	344.0015669809392	
1.65448583615054	-134.5096610817849	-163.57525823632704	-131.68535024470373	-163.57525823632693	159.93857830878176	96.9248980157413	-131.68535024470347	96.92489801574034	370.4740588580345	
1.7046217705793443	-85.0765635338714	-166.89845554428422	-114.24762821147031	-166.89845554428405	199.16628414642543	127.74037851621856	-114.24762821146994	127.74037851621756	411.27620319472385	
1.7547577050081484	-29.121459505733384	-179.79012192633755	-98.52306245037224	-179.79012192633735	231.2715912755782	162.45989981950558	-98.52306245037175	162.45989981950456	462.82938494292637	
1.8048936394369528	28.975849307107865	-199.61186064218515	-83.0782872901194	-199.61186064218515	250.94187275705656	197.5677418406226	-83.07828729011885	197.5677418406216	520.0532627963826	
1.855029573865757	86.1584698684152	-222.5316723764688	-66.63306709738666	-222.53167237646895	256.49643213571244	229.6322857756877	-66.63306709738613	229.6322857756868	577.188883308065	
1.905165508294561	141.5190320150044	-244.5110175848069	-48.48888053859524	-244.51101758480735	250.02924917536316	256.17005347250654	-48.48888053859467	256.1700534725057	628.3440386151696	
1.9553014427233655	195.87072589742667	-261.4931545817588	-28.63822532626345	-261.4931545817593	236.04147854807974	276.1704097130212	-28.63822532626292	276.1704097130204	667.7999162665881	
2.0054373771521696	250.84709257297573	-269.97422228066	-7.509447947943023	-269.9742222806606	219.77156522230945	290.00400365069265	-7.509447947942505	290.00400365069197	690.116015729421	
2.055573311580974	307.8520925617461	-267.20223649681185	14.4998542694747	-267.2022364968124	205.94503858223447	298.7985178031808	14.499854269475186	298.7985178031801	690.3795011854999	
2.1057092460097784	366.70715822441895	-251.48014324063985	37.44021171824772	-251.48014324064042	196.93391787412259	303.57957764157777	37.44021171824817	303.5795776415771	664.7037842113558	
2.1558451804385825	424.92667159559835	-222.4838340932169	61.898396996775055	-222.48383409321735	192.71867623506142	304.54417443807023	61.89839699677546	304.5441744380696	611.0372961977603	
2.2059811148673867	477.7472942810243	-181.15415609490228	88.70967408215594	-181.1541560949025	190.5237657508748	300.7969701522289	88.70967408215631	300.79697015222814	530.02486348089	
2.256117049296191	518.861232662884	-130.03971191373913	118.31777495884636	-130.03971191373924	185.965850310519	290.6646317382142	118.31777495884664	290.66463173821353	425.60289957012503	
2.306252983724995	542.079537940731	-72.80513769697832	150.07549425297105	-72.80513769697822	174.195926567926	272.43392424379715	150.0754942529713	272.43392424379647	304.94696033014554	
2.3563889181537996	542.8403931804766	-14.10258541095505	181.8333998752721	-14.102585410954866	151.6496417239131	245.26491347823728	181.8333998752724	245.26491347823662	177.6346085526513	
2.4065248525826037	519.6526328782461	41.217461119029	209.90074055973034	41.2174611190293	117.23782505727218	209.80572128210778	209.9007405597306	209.80572128210707	54.320278246477116	
2.456660787011408	474.24966650609366	88.76451169478906	229.6170712246293	88.76451169478938	73.05415455052204	168.40872960934925	229.6170712246295	168.40872960934863	-54.84034546027896	
2.506796721440212	411.3159652182385	125.27887180438523	236.31935739211124	125.27887180438555	24.455241227530593	124.83941256960192	236.31935739211144	124.8394125696014	-141.547713572615	
2.556932655869016	337.22965565911693	149.35349965905513	226.50345293513803	149.35349965905542	-21.35324578540326	83.57919071501212	226.50345293513828	83.57919071501172	-200.326335499771	
2.607068590297821	258.95820403538966	161.31969382026654	198.91669854265547	161.31969382026668	-56.59970866687331	48.99923661694623	198.91669854265567	48.9992366169459	-228.9679445810607	
2.657204524726625	183.0502667146314	162.8844612640725	155.30778329438476	162.88446126407268	-74.58893339847447	24.471616702758425	155.307783294385	24.47161670275821	-228.5796157420603	
2.707340459155429	114.48456400524923	156.51381432249173	100.62505738959513	156.51381432249184	-71.22142934416637	11.775373136244994	100.62505738959541	11.775373136244845	-203.32473143021713	
2.7574763935842332	56.40544802572789	144.6621946694761	42.35514097280425	144.66219466947612	-45.72457867123586	10.875084752950084	42.35514097280454	10.875084752949995	-159.8591468506017	
2.8076123280130374	9.429982697417287	129.38614699536484	-10.776696260278364	129.38614699536487	-0.950498585034893	20.052018738984074	-10.7766962602781	20.05201873898403	-106.41022788314393	
2.857748262441842	-28.069006904564787	112.38323215513596	-50.631920158346176	112.383232155136	56.73697787920605	36.43097368464136	-50.63192015834596	36.4309736846413	-51.59687201030006	
2.907884196870646	-59.56064338038658	94.88778897141363	-71.61053084885178	94.88778897141367	118.72671004754395	56.7787418951399	-71.61053084885157	56.778741895139845	-3.1311512974562348	
2.9580201312994503	-89.28793070902219	77.94387662006605	-71.96235648151767	77.94387662006612	174.92080168983696	78.26602961624627	-71.96235648151745	78.26602961624621	33.41157283130019	
3.0081560657282544	-120.97632514055525	62.215625977213364	-54.08816234032554	62.21562597721342	215.70745149611207	98.97794745290935	-54.088162340325376	98.97794745290929	55.42822102363772	
3.0582920001570586	-157.08696337863975	47.72231341852633	-23.66633338783826	47.722313418526355	233.1261435796484	118.04526181383147	-23.66633338783813	118.04526181383137	63.664945554224786	
3.108427934585863	-197.94656982995878	33.68686182977988	12.038743356644503	33.68686182977992	222.35498739090278	135.28559924380573	12.03874335664463	135.2855992438056	62.0021238899388	
3.1585638690146673	-241.9725852157285	18.651523653480318	46.097429612888085	18.651523653480307	182.52115118646802	150.55730777659755	46.09742961288816	150.55730777659744	56.680493969032824	
3.2086998034434715	-286.2266949623646	0.9800121450623962	73.36982733845402	0.9800121450623678	117.02355451046469	163.1661547802023	73.36982733845409	163.16615478020213	55.161594920245705	
3.2588357378722757	-327.27548094380046	-20.473556532174854	91.14756339283872	-20.47355653217491	32.71328469152634	171.5078325928739	91.14756339283876	171.50783259287377	64.67594918717936	
3.30897167230108	-362.19252373990696	-45.81554101302108	98.9415670962777	-45.81554101302111	-61.09942607664337	173.20042338176665	98.94156709627772	173.2004233817665	90.68548567064195	
3.3591076067298844	-388.9826512116647	-73.95669216742023	97.79467180440801	-73.95669216742026	-154.38425278537207	165.61936207625814	97.79467180440804	165.619362076258	135.67939287309645	
3.4092435411586886	-407.2598087491833	-103.14665904398355	89.49555790336795	-103.14665904398356	-237.90065431215146	146.70821496300243	89.49555790336792	146.70821496300232	198.50244116301982	
3.4593794755874927	-418.3582104195168	-131.52082842627283	75.90583890165898	-131.52082842627286	-304.17635424175484	115.75999599989345	75.90583890165894	115.7599959998933	274.6056232159594	
3.509515410016297	-424.79266427711804	-157.9206905065655	58.66405710142796	-157.9206905065655	-347.8358081107661	73.80313198087624	58.664057101427886	73.80313198087613	357.0476593635986	
3.559651344445101	-429.653058682978	-181.91469784089108	39.01722129977733	-181.91469784089105	-366.1608691780799	23.560409916508313	39.01722129977725	23.560409916508217	438.11578633273297	
3.6097872788739056	-435.42509884012367	-203.7172633094963	17.755165121933793	-203.7172633094963	-358.10122222564564	-31.137630859688798	17.755165121933707	-31.13763085968888	510.95122758509825	
3.6599232133027098	-443.0042062847385	-223.5814144642204	-4.8089408378495335	-223.58141446422047	-324.28468012357104	-86.09385344634575	-4.808940837849626	-86.0938534463458	570.734035105138	
3.710059147731514	-451.2916780864205	-241.17417195162383	-28.738299120811696	-241.17417195162392	-267.0197563317892	-137.5342828343636	-28.73829912081178	-137.53428283436364	614.9652880642939	
3.760195082160318	-457.34431679613016	-255.11985722843957	-54.30378199878678	-255.11985722843966	-189.694237643134	-182.62376876323142	-54.303781998786846	-182.62376876323142	643.0427507150818	
3.810331016589122	-457.39898899404227	-263.13181015849506	-81.68560559191889	-263.13181015849517	-97.37045883492173	-219.50243056481878	-81.68560559191894	-219.50243056481872	655.4229051525972	
3.860466951017927	-447.8226752220975	-262.50806634125036	-110.71394174006889	-262.50806634125047	3.744337288170982	-247.06483970834802	-110.71394174006892	-247.0648397083479	652.8734026247821	
3.910602885446731	-426.264765456615	-250.7916130579988	-140.68802571809493	-250.79161305799892	106.18046168916626	-264.4994182156433	-140.68802571809496	-264.49941821564323	636.113929071304	
3.960738819875535	-391.96378775200105	-226.62001708155907	-170.3732065355408	-226.6200170815592	201.65557363749448	-271.0377109128437	-170.37320653554076	-271.03771091284364	606.0369641852251	
4.010874754304339	-346.36418938216315	-190.50812068983066	-198.10742383099375	-190.50812068983072	281.61372833474513	-266.1130914012757	-198.10742383099372	-266.1130914012757	564.1224904794083	
4.061010688733144	-292.0833209803544	-144.93130363902827	-221.97177751905355	-144.93130363902836	338.0090715389991	-249.7889874358671	-221.9717775190535	-249.78898743586706	512.6615185414101	
4.111146623161948	-233.31013622621558	-94.3467661681849	-240.04719413057006	-94.34676616818498	364.61767988203	-223.44022815786806	-240.04719413057	-223.44022815786803	454.7064744558748	
4.161282557590752	-174.8136049258603	-44.373711031500875	-250.64244098488754	-44.373711031500946	358.0635859913521	-190.18600526500404	-250.64244098488751	-190.186005265004	393.69446430191397	
4.211418492019557	-121.48633376082135	-0.8103057681252004	-252.535549185832	-0.8103057681252217	319.0763240264338	-154.69226118810093	-252.53554918583194	-154.6922611881009	332.92112670481396	
4.2615544264483605	-77.66213172991132	31.51695380928217	-245.25677769514368	31.51695380928217	252.43288339196013	-122.25687519290825	-245.25677769514357	-122.25687519290821	275.23806230013264	
4.311690360877165	-46.29140974895408	49.68922410420542	-229.2956773775487	49.689224104205415	166.91074129496678	-97.19646953100052	-229.29567737754863	-97.19646953100045	223.113850856839	
4.361826295305969	-28.56436513189194	53.162836280732364	-206.18138988822014	53.16283628073235	73.57034946112341	-81.24452211370539	-206.18138988822002	-81.24452211370537	178.8764689185616	
4.411962229734773	-24.03762193724662	43.56830233836512	-178.31158047662058	43.56830233836512	-16.01288129706043	-72.63918472389872	-178.31158047662046	-72.63918472389875	144.99075352179844	
4.462098164163578	-30.962815605831096	24.191608361603176	-148.57645566351985	24.191608361603198	-91.40772469444546	-66.2503340578892	-148.57645566351974	-66.25033405788926	124.07254615053412	
4.512234098592382	-46.73107375557464	-1.2942051163986648	-119.74751072845463	-1.2942051163985795	-145.12192494188548	-54.983600108030174	-119.74751072845453	-54.983600108030245	118.56554833955151	
4.562370033021186	-68.26124940168667	-29.36682951005313	-93.81792752600504	-29.36682951005301	-173.25268899470103	-31.994802928957483	-93.8179275260049	-31.994802928957526	130.3469142688676	
4.61250596744999	-92.12434650191648	-57.486371178257066	-71.56448355356137	-57.48637117825686	-175.38529259376224	7.102612516308483	-71.56448355356126	7.1026125163083265	160.44134294969433	
4.662641901878795	-114.44519106363859	-83.72865368394216	-52.503634031186344	-83.72865368394184	-154.10845714849685	62.79066652814935	-52.50363403118625	62.79066652814923	209.0141772780503	
4.712777836307599	-131.22045564973172	-106.66220960172907	-35.360664748474235	-106.66220960172869	-114.22267626897076	131.3653648525289	-35.36066474847419	131.3653648525288	275.48107231083117	
4.762913770736403	-139.0070096972296	-124.89637761489229	-18.75838556076082	-124.89637761489169	-61.75652592569571	205.80762397656667	-18.758385560760843	205.80762397656656	358.58537053019717	
4.8130497051652075	-135.38585502446205	-136.90973649679796	-1.987301469575602	-136.90973649679717	-3.793807628917804	277.3295575035733	-1.9873014695756517	277.3295575035733	456.18890469178695	
4.863185639594011	-119.95732119896473	-141.45759909617493	14.501025088399592	-141.4575990961739	52.333274241655815	337.22529146258756	14.501025088399455	337.2252914625875	564.6827001418415	
4.913321574022816	-94.51362050223509	-138.1688490866583	29.04919877045657	-138.16884908665702	99.15599287970326	378.5676903217541	29.04919877045635	378.5676903217542	678.3675236988004	
4.96345750845162	-62.243869219623406	-128.0430196157136	39.279683783043325	-128.04301961571218	129.68344721622518	397.46473307010035	39.27968378304302	397.46473307010035	789.2576788246809	
5.013593442880424	-26.790464373132966	-113.49757283115142	42.71251486062603	-113.49757283114977	138.46180076926146	393.83310512742617	42.71251486062562	393.83310512742634	887.5943096310067	
5.063729377309229	9.39300931978029	-98.02262032716851	37.47696900532077	-98.02262032716669	122.94544086779945	371.5152091453283	37.476969005320285	371.5152091453285	963.2436839589495	
5.113865311738032	45.89296978569722	-85.04772525481218	22.794014189491183	-85.04772525481044	84.51696927329651	337.5829902018614	22.794014189490582	337.5829902018615	1007.6319176600858	
5.164001246166837	84.75886044005539	-77.1028942938474	-0.9028398000263778	-77.10289429384572	28.93489291557953	300.8435050854787	-0.9028398000270954	300.8435050854787	1015.6473766246318	
5.214137180595642	130.16658209236343	-75.10205382967226	-32.040365278206046	-75.10205382967087	-33.83107811339005	269.89725506676	-32.040365278206906	269.89725506676	986.882263272095	
