# Stress in units of bar (10^5 Pa)
# z	Sxx	Sxy	Sxz	Syx	Syy	Syz	Szx	Szy	Szz
0.0	-117.9708559107685	23.32033583285019	-81.61791101346138	23.320335832848812	99.98048336614082	-72.25815514431332	-81.6179110134624	-72.25815514431332	63.76070667425705	
0.053542323118157674	-107.30164326470648	39.65349166654035	-79.49548786071657	39.65349166653899	143.8130077276037	-90.2639807539033	-79.49548786071759	-90.26398075390318	89.87163796018751	
0.10708464623631535	-89.85089494197754	53.46500756691422	-77.42471789221322	53.46500756691288	191.83983058916868	-106.06885938251501	-77.42471789221428	-106.06885938251476	118.31527128947211	
0.16062696935447301	-67.30483242747056	64.02505314596746	-75.29514612751568	64.02505314596618	241.89096211510545	-118.67011425036935	-75.29514612751674	-118.67011425036895	147.9737219430297	
0.2141692924726307	-41.635889232571145	70.94892241802535	-73.12265569071687	70.94892241802413	291.7506918885699	-127.29522361551895	-73.12265569071792	-127.29522361551845	177.66077696309156	
0.2677116155907884	-14.93314894303645	74.2418961970942	-71.08739938172077	74.2418961970931	339.41360531102316	-131.48012734507225	-71.08739938172185	-131.48012734507162	206.2005676692436	
0.32125393870894603	11.078895802965473	74.35539018280707	-69.51862007004856	74.35539018280602	383.1746372350993	-131.1143512120938	-69.51862007004962	-131.11435121209303	232.48422374531	
0.37479626182710374	35.09648319170101	72.00216718007292	-68.84080228751147	72.0021671800719	421.551977875947	-126.44927715710648	-68.84080228751252	-126.44927715710566	255.5183782363727	
0.4283385849452614	56.29249066412374	68.11216166800705	-69.48953705636532	68.11216166800608	453.30576446297835	-118.05865105102376	-69.48953705636637	-118.05865105102286	274.4740577620719	
0.48188090806341904	74.2614489176473	63.53122209222782	-71.82041307366666	63.53122209222683	477.2432454227328	-106.77295394595444	-71.82041307366772	-106.77295394595349	288.71419224822176	
0.5354232311815768	88.96204693481327	58.941557216925474	-76.01391685230637	58.94155721692448	492.2528743707347	-93.56548332033594	-76.0139168523074	-93.56548332033498	297.82395624260533	
0.5889655542997344	100.4207550355738	54.67517467386776	-82.01070259155776	54.67517467386669	497.2704200391513	-79.46761311657335	-82.01070259155883	-79.46761311657242	301.65646466944924	
0.6425078774178921	108.70181590686121	50.70804532853523	-89.49904132932176	50.70804532853407	491.43337383537363	-65.47459440725996	-89.4990413293228	-65.47459440725906	300.38709681981675	
0.6960502005360497	113.71034289541242	46.62622016315704	-97.94361360759042	46.626220163155864	474.3002025774223	-52.47756988174105	-97.94361360759146	-52.477569881740216	294.5402360596329	
0.7495925236542075	115.24655423222251	41.738346814201584	-106.64230048203856	41.73834681420036	445.90796552522096	-41.20218732382413	-106.64230048203959	-41.2021873238234	285.00016131496056	
0.8031348467723651	112.96333357737271	35.334975678134015	-114.82392345232148	35.3349756781328	407.22051640405334	-32.183632649371056	-114.8239234523225	-32.18363264937043	272.99823814035705	
0.8566771698905228	106.58984858179875	26.698153406902403	-121.73512167362338	26.698153406901234	359.98604731540274	-25.762785971466435	-121.73512167362439	-25.762785971465902	260.0247864957248	
0.9102194930086804	96.00433091177527	15.51909361765117	-126.73175812996898	15.519093617650107	306.8312126756486	-22.068022759906512	-126.73175812996998	-22.068022759906118	247.68370675907434	
0.9637618161268381	81.48949123985946	1.8252393949244023	-129.35470494264482	1.8252393949234786	251.02959768237343	-21.032618984503657	-129.35470494264575	-21.032618984503365	237.51500510944106	
1.0173041392449957	63.81660900146464	-13.882102261935334	-129.34588878893916	-13.882102261936048	196.0612809112346	-22.398983064162085	-129.34588878894007	-22.398983064161893	230.80603071324566	
1.0708464623631535	44.272248335729664	-30.64463179370245	-126.66217408288853	-30.644631793702942	145.39341096492444	-25.748821977992606	-126.66217408288944	-25.748821977992492	228.37484526248568	
1.124388785481311	24.81000025437033	-47.263151245893646	-121.46984553419718	-47.263151245893965	102.01076986828922	-30.544588328070752	-121.46984553419806	-30.54458832807069	230.45062066049752	
1.1779311085994688	7.603968006394602	-62.413627727329185	-114.10415371101004	-62.41362772732933	67.98054315224024	-36.19861179773108	-114.10415371101092	-36.19861179773107	236.58693892946056	
1.2314734317176266	-4.844608214102109	-74.91649067654768	-105.05950289429806	-74.91649067654768	44.55197568375423	-42.137868597930094	-105.05950289429893	-42.137868597930115	245.73614236561903	
1.2850157548357841	-10.181452689027182	-83.88680064410045	-94.96533991319095	-83.88680064410033	31.82493154298676	-47.84895703760969	-94.96533991319177	-47.84895703760969	256.41736341696503	
1.3385580779539419	-6.53348836816776	-88.90350647336224	-84.51367621357112	-88.90350647336207	29.282140497376417	-52.93888972217519	-84.51367621357194	-52.93888972217521	266.94516571865074	
1.3921004010720994	7.436635727187991	-90.02391198979217	-74.44384033978905	-90.02391198979197	35.72351983906897	-57.16070547928222	-74.44384033978989	-57.160705479282214	275.74257863213563	
1.4456427241902572	32.14827008027753	-87.72120838106363	-65.47854102991138	-87.72120838106352	50.019461263646484	-60.389909154958055	-65.4785410299122	-60.38990915495804	281.6065395321331	
1.499185047308415	67.28477339428707	-82.85785389420002	-58.23254105619754	-82.85785389419995	71.11111943898625	-62.592777944743744	-58.23254105619832	-62.59277794474372	283.8937476487889	
1.5527273704265725	111.77756788887916	-76.33152712004029	-53.11596534626625	-76.3315271200402	98.49711449298329	-63.76631777208407	-53.11596534626699	-63.76631777208402	282.64973324110184	
1.6062696935447303	163.97158125212314	-69.17419023026362	-50.26158107779576	-69.17419023026365	132.23849464920366	-63.876802175444915	-50.261581077796464	-63.87680217544485	278.57867132061597	
1.6598120166628878	221.86595984001065	-62.17913166448164	-49.47454301835628	-62.179131664481716	172.75264939720861	-62.810396916747884	-49.47454301835691	-62.81039691674781	272.8887107046213	
1.7133543397810456	283.58657036682297	-56.07409794423894	-50.22174042837494	-56.074097944239014	220.7166375914091	-60.35160622386736	-50.22174042837549	-60.35160622386727	267.0605056869679	
1.7668966628992033	347.0322260189918	-51.27402440100043	-51.66412467026792	-51.27402440100056	276.47595175396174	-56.19296871791924	-51.664124670268386	-56.19296871791916	262.5617508807316	
1.8204389860173609	410.33577076255773	-48.124385777869335	-52.784040563763845	-48.12438577786949	339.8329181112669	-49.993882590324404	-52.78404056376422	-49.993882590324304	260.5531134497443	
1.8739813091355186	471.50973661940145	-46.778008936090266	-52.52480504865673	-46.77800893609039	409.3531955702691	-41.48715192792653	-52.524805048657015	-41.487151927926426	261.66245113545153	
1.9275236322536762	528.6279630075724	-47.28206780726428	-49.96048220152046	-47.282067807264426	482.62859506822764	-30.59067509853965	-49.96048220152067	-30.590675098539524	265.846804054082	
1.981065955371834	579.5838471769803	-49.50717886672562	-44.461322540828064	-49.50717886672574	556.0838535193519	-17.523710890858403	-44.461322540828185	-17.523710890858275	272.3626964608298	
2.0346082784899915	622.1577636436132	-53.139085652622455	-35.82293900385524	-53.13908565262258	625.4036419044517	-2.8612471356867815	-35.82293900385528	-2.8612471356866607	279.8803099691327	
2.0881506016081492	654.1407141963023	-57.68584546529047	-24.33887282547689	-57.68584546529061	685.9521549958334	12.485600950728976	-24.338872825476898	12.485600950729097	286.7042130432667	
2.141692924726307	673.6330325028822	-62.38613285436061	-10.770241569283876	-62.386132854360774	733.5525351586627	27.373278154690052	-10.770241569283844	27.37327815469016	291.0734918084672	
2.1952352478444648	679.1708854157579	-66.34832713868417	3.7304833924574616	-66.34832713868437	764.8262087582358	40.623250770496234	3.7304833924575256	40.623250770496334	291.47243656156627	
2.248777570962622	670.0735413705131	-68.63457765367491	17.779117367717888	-68.63457765367514	777.7328512746881	51.25253180828115	17.77911736771796	51.25253180828123	286.8915464735105	
2.30231989408078	646.5629715464878	-68.30110112915668	29.923771801717244	-68.30110112915688	771.7923797466135	58.68151574782208	29.92377180171732	58.681515747822125	276.981211930692	
2.3558622171989376	609.7312157679761	-64.72129033845525	38.83293694326491	-64.72129033845547	747.8609634534953	62.87809936279195	38.832936943264976	62.87809936279197	262.0635634500203	
2.4094045403170954	561.4971946558775	-57.5599549479433	43.45285924625594	-57.55995494794351	708.0404286360897	64.3455296193805	43.45285924625602	64.34552961938047	243.02549492423324	
2.462946863435253	504.37670323285744	-46.94841739028872	43.12422626802413	-46.94841739028896	655.2225033613088	63.9899055901287	43.12422626802418	63.98990559012866	221.08222996408665	
2.5164891865534105	441.0349932474534	-33.395029146161214	37.66374272765741	-33.39502914616143	592.5909671944253	62.86600403803716	37.663742727657436	62.86600403803713	197.55212641494256	
2.5700315096715682	374.13714117223947	-17.70897590927663	27.379019820035737	-17.708975909276845	523.3745828570438	61.87750454684885	27.37901982003573	61.87750454684881	173.63657773872495	
2.623573832789726	306.1311241841913	-0.8989629694042307	13.049532867309408	-0.898962969404451	450.4886507943961	61.49111745286787	13.049532867309384	61.4911174528678	150.27505101607784	
2.6771161559078838	239.13454739882795	16.111728000875345	-4.135681364015852	16.11172800087511	376.45197221645856	61.58433064946986	-4.135681364015916	61.58433064946982	128.10932405935506	
2.7306584790260415	175.0001396552827	32.51794112755374	-22.704251581943087	32.5179411275536	303.3471323159613	61.406600423566296	-22.70425158194318	61.40660042356627	107.52925886948421	
2.784200802144199	115.41989851788081	47.826237924464984	-41.04239138172446	47.82623792446485	232.8631550373148	59.77054996089552	-41.04239138172457	59.77054996089552	88.76410463689425	
2.8377431252623566	61.846252172378286	61.78689459793675	-57.59099175270965	61.786894597936616	166.3139877695313	55.350645549055244	-57.590991752709776	55.35064554905527	71.95355618936688	
2.8912854483805144	15.766272738670636	74.33148890798216	-71.01385388017101	74.33148890798208	104.7485932970865	47.04575918606649	-71.01385388017115	47.04575918606653	57.22085360771781	
2.944827771498672	-21.83419180084627	85.57010453404405	-80.36727167642886	85.570104534044	48.907260742478925	34.27572835875792	-80.367271676429	34.27572835875798	44.68216242514974	
2.99837009461683	-50.22711450996208	95.4641447149996	-85.20839121032034	95.46414471499963	-0.7178459475155421	17.181892609666242	-85.2083912103205	17.181892609666342	34.42749156533475	
3.0519124177349872	-69.4082932642554	104.0117411296328	-85.64135730010457	104.01174112963284	-43.81941094697999	-3.3372996498924747	-85.6413573001047	-3.337299649892352	26.480783405975977	
3.105454740853145	-80.00987030046998	110.94204746651624	-82.2666648253377	110.94204746651633	-80.31529629763605	-25.788114369614384	-82.26666482533783	-25.78811436961427	20.75395713143796	
3.1589970639713028	-83.34128644131978	116.06421007763235	-76.06007992095407	116.06421007763248	-110.19517731232906	-48.35515050476853	-76.06007992095417	-48.355150504768396	16.993682231028245	
3.2125393870894605	-81.12234262164421	119.15037342042453	-68.24171915468996	119.15037342042466	-133.59584124308822	-69.22475491527604	-68.24171915469003	-69.22475491527591	14.7687560704683	
3.2660817102076183	-75.32120286855067	120.1832773889211	-60.07231943881605	120.18327738892125	-150.62131847526467	-86.86653752887347	-60.07231943881611	-86.86653752887334	13.520114187684477	
3.3196240333257756	-67.77667910100928	119.37484799870893	-52.691251019738104	119.3748479987091	-161.56648926692557	-100.2149234344561	-52.69125101973814	-100.21492343445595	12.604904035107744	
3.3731663564439334	-60.01216366507163	117.12486590640123	-46.99342957105104	117.12486590640141	-166.65129080714502	-108.71549633291556	-46.99342957105107	-108.71549633291545	11.38643070916986	
3.426708679562091	-53.107954649519954	113.93970905921356	-43.52439153941532	113.93970905921375	-166.3667351566578	-112.26618157167087	-43.52439153941532	-112.26618157167077	9.317546772462052	
3.480251002680249	-47.66049502033296	110.30733966399775	-42.43684311650184	110.30733966399791	-161.03333621083135	-111.09270073710165	-42.43684311650183	-111.09270073710155	6.060853168423971	
3.5337933257984067	-43.76236091181936	106.56509577164545	-43.518848955831814	106.56509577164562	-151.40450656103235	-105.55610583399087	-43.5188489558318	-105.55610583399083	1.6175744598383108	
3.587335648916564	-41.13402484366701	102.66413985883989	-46.198602247432135	102.66413985884006	-137.97593280204867	-96.0594956528024	-46.19860224743211	-96.05949565280234	-3.652249633973703	
3.6408779720347217	-39.270171729653555	98.29693855777289	-49.66421423638012	98.29693855777306	-121.5522636942055	-82.99947295703147	-49.664214236380076	-82.99947295703143	-9.008983829188239	
3.6944202951528795	-37.55059082555922	92.93085680374794	-52.98035998991589	92.93085680374811	-102.95413689632565	-66.78965966277644	-52.98035998991584	-66.7896596627764	-13.407936981631487	
3.7479626182710373	-35.31199797188469	85.7910876074351	-55.2036301995939	85.79108760743529	-83.2398124691288	-47.92398501649274	-55.20363019959385	-47.923985016492715	-15.704865992314144	
3.801504941389195	-31.99595834790317	76.36647951017771	-55.53691212807677	76.36647951017787	-63.585493152523895	-27.07288567713151	-55.536912128076715	-27.07288567713148	-14.860349858988194	
3.8550472645073524	-27.20591354256615	64.33910082139738	-53.45833813163079	64.33910082139755	-45.251290482644286	-5.120147040472865	-53.458338131630725	-5.120147040472839	-10.157239977350422	
3.90858958762551	-21.06417525244626	49.82241696357684	-48.828078786708	49.82241696357704	-29.503106935173037	16.854819287345542	-48.82807878670794	16.854819287345585	-1.37546196901161	
3.962131910743668	-13.665852815245387	33.35822588464881	-41.94823770177013	33.35822588464895	-17.21706296462198	37.63326025182693	-41.94823770177007	37.63326025182698	11.118268098287944	
4.015674233861826	-5.46972449421456	15.882645603378961	-33.529647531112886	15.882645603379103	-8.528068331136438	56.02069942984447	-33.529647531112815	56.02069942984454	26.42374613254797	
4.069216556979983	3.126504022249261	-1.5206065134367677	-24.648742201666984	-1.5206065134366256	-2.8176508539671197	70.99591464339926	-24.648742201666916	70.99591464339933	43.20457919252105	
4.122758880098141	11.768169158549325	-17.631868000026273	-16.60544404204544	-17.63186800002613	1.5726673221745737	81.84367502287051	-16.605444042045377	81.8436750228706	59.91342440111876	
4.1763012032162985	20.503699630809905	-31.593093801834037	-10.753925323662475	-31.593093801833895	7.191435461984966	88.2687969763536	-10.753925323662413	88.2687969763537	75.00403183981557	
4.229843526334456	29.863783629089482	-42.76477248569152	-8.274164357324235	-42.764772485691395	17.17300605774625	90.41475953340816	-8.274164357324189	90.41475953340827	87.15342622639005	
4.283385849452614	40.804692023276864	-50.98796078447182	-10.004085993308461	-50.987960784471696	34.60706941809117	88.83426733391626	-10.004085993308433	88.8342673339164	95.40132018026006	
4.336928172570771	54.60684649531633	-56.56117254910573	-16.32577393433868	-56.56117254910559	62.03910052343679	84.41414466570782	-16.325773934338663	84.41414466570797	99.22739731143852	
4.3904704956889296	72.76656460661363	-60.145446108892344	-27.081643653894396	-60.145446108892216	101.14649929601603	78.24288279491846	-27.081643653894407	78.2428827949186	98.60671914961335	
4.444012818807087	96.68288975972341	-62.64695914149367	-41.65406246092942	-62.646959141493525	152.0683521788945	71.4605704866884	-41.65406246092946	71.46057048668854	94.01396332700514	
4.497555141925244	127.48875225481837	-65.06804502499618	-59.09964516233655	-65.06804502499605	213.69784586314464	65.14132465368517	-59.09964516233662	65.14132465368534	86.39343800772868	
4.551097465043402	165.9678881840374	-68.24450253575068	-78.31859550307587	-68.2445025357506	283.8325519043925	60.15257407343695	-78.31859550307595	60.15257407343709	77.12599267797545	
4.60463978816156	212.13581145922774	-72.84184174244882	-98.25385683193164	-72.84184174244874	359.3741602673791	57.11465294609344	-98.25385683193176	57.114652946093585	67.94949755300115	
4.658182111279718	265.45762499515524	-79.13968769459188	-118.04941815790582	-79.13968769459183	436.9297931948313	56.35632951187789	-118.04941815790593	56.35632951187802	60.86222289083379	
4.711724434397875	324.6970067090143	-87.0228943560303	-137.1449030724986	-87.02289435603025	513.0103912247446	57.92111955422412	-137.14490307249875	57.92111955422423	57.926362722457	
4.765266757516033	387.9139418271872	-96.00420486231155	-155.23549734616492	-96.00420486231161	584.3356078301457	61.60426072982406	-155.23549734616512	61.604260729824155	61.02793039847516	
4.818809080634191	452.5770571296084	-105.22553048427757	-172.2040621099483	-105.2255304842776	647.8784160452725	67.0236717251117	-172.20406210994855	67.02367172511177	71.59024086369315	
4.872351403752348	515.5682206831596	-113.68458879434485	-188.00313028563988	-113.68458879434493	700.8225055859884	73.6705503234393	-188.00313028564017	73.67055032343933	90.28713466388193	
4.925893726870506	573.4265257743982	-120.35896475483275	-202.5125647209924	-120.3589647548329	740.5684592838471	80.99655221494645	-202.51256472099263	80.99655221494646	116.78514266868059	
4.979436049988664	622.5018509996597	-124.41258618270489	-215.44725924863224	-124.41258618270506	764.8243977733301	88.44185772894056	-215.44725924863252	88.44185772894053	149.64549678929038	
5.032978373106821	659.3805749627304	-125.27250697068558	-226.29679213896532	-125.27250697068575	771.6900468656154	95.44660377578656	-226.29679213896563	95.44660377578651	186.408687162401	
5.086520696224979	681.0462303192554	-122.71740890953774	-234.3570093497825	-122.71740890953794	759.94391326451	101.4730004990588	-234.3570093497828	101.47300049905876	223.8309525691542	
5.1400630193431365	685.6081276513262	-116.95584367466846	-238.79874200963565	-116.95584367466869	729.2888419878491	106.02508697091247	-238.798742009636	106.02508697091241	258.30568708053363	
5.193605342461295	672.4183681448382	-108.38823811040598	-238.78244675097935	-108.38823811040619	680.5056251395505	108.65987119937952	-238.78244675097966	108.65987119937947	286.38409353808436	
5.247147665579452	642.3379028177919	-97.60524431901337	-233.6027097181833	-97.60524431901361	615.4878658443774	109.02602399647307	-233.60270971818352	109.02602399647304	305.32410385961686	
5.300689988697609	597.8354371524371	-85.09673413944243	-222.84779586558048	-85.09673413944276	537.1969201087107	106.9298865824097	-222.84779586558076	106.92988658240967	313.55032063652044	
5.3542323118157675	542.5459059882425	-71.22839336041301	-206.53844190691308	-71.22839336041334	449.27930012478794	102.39059612123347	-206.5384419069133	102.39059612123346	310.9332737996242	
5.407774634933925	480.8834021057152	-56.155612775954296	-185.19992564444019	-56.15561277595474	355.90905486162194	95.67342018260113	-185.19992564444038	95.67342018260116	298.8265927498369	
5.461316958052083	417.2991506203696	-39.86776779800431	-159.8906722275604	-39.8677677980048	261.1659817744704	87.29010623292983	-159.89067222756054	87.29010623292989	279.8558986252397	
5.51485928117024	355.63053270838805	-22.28484041859207	-132.14231836113908	-22.284840418592665	169.10967043178317	77.95965288522082	-132.1423183611392	77.95965288522089	257.51197961060404	
5.568401604288398	298.55904573182886	-3.443916429469992	-103.8178012179994	-3.443916429470673	83.2082636089073	68.52816647691037	-103.81780121799952	68.52816647691049	235.6150889280417	
