# Stress in units of bar (10^5 Pa)
# z	Sxx	Sxy	Sxz	Syx	Syy	Syz	Szx	Szy	Szz
0.0	-165.9118287249394	30.89009316289805	-80.30464683662157	30.89009316289649	66.55837815540986	-77.22038328048741	-80.30464683662261	-77.22038328048752	46.15510649692299	
0.053542323118157674	-145.97383690902228	54.046595882865645	-80.32748755811822	54.04659588286412	123.54381477266269	-101.6994139684708	-80.32748755811929	-101.69941396847074	77.75399097542441	
0.10708464623631535	-115.68572904773043	73.21778346075767	-79.86095100181093	73.2177834607562	185.0425611644906	-123.31621264476038	-79.86095100181203	-123.31621264476014	112.37722669500661	
0.16062696935447301	-79.36632401932613	86.58158164287929	-78.20624785965066	86.5815816428779	247.13733650817605	-140.4661930479199	-78.20624785965177	-140.46619304791946	148.33734988216605	
0.2141692924726307	-41.22995778428377	93.17786776266223	-75.07477041526212	93.17786776266098	306.61378217206027	-151.84279961613208	-75.0747704152632	-151.84279961613154	183.9962001889821	
0.2677116155907884	-4.847936257147172	93.18467423303734	-70.7161517335926	93.18467423303626	361.2186966348793	-156.62388168773583	-70.71615173359368	-156.62388168773515	217.89981274254845	
0.32125393870894603	27.338198125736174	87.7064543659722	-65.89300867741686	87.70645436597127	409.6978393004717	-154.61489218319306	-65.8930086774179	-154.61489218319224	248.81605305552182	
0.37479626182710374	53.916695312305144	78.6357872245388	-61.72484674921394	78.63578722453798	451.64043400924066	-146.31444490699386	-61.72484674921496	-146.31444490699292	275.7351050899798	
0.4283385849452614	74.72069393044373	68.22457453898875	-59.433246216405024	68.224574538988	487.0620231800206	-132.8356839313199	-59.433246216406054	-132.83568393131887	297.82412821425766	
0.48188090806341904	90.38601818358568	58.596285787413905	-60.06140125013956	58.596285787413194	515.7625514739857	-115.71205746081066	-60.0614012501406	-115.7120574608096	314.38294825826966	
0.5354232311815768	102.23584764523882	51.456943637762606	-64.23986039230027	51.45694363776177	536.9359932990595	-96.63883609450507	-64.23986039230132	-96.63883609450397	324.80452847052476	
0.5889655542997344	111.69260335768631	47.655965120772166	-72.03680887681719	47.65596512077116	548.908519695154	-77.23487763640108	-72.03680887681827	-77.2348776364	328.61555639575886	
0.6425078774178921	119.73083098128062	47.06688294755365	-82.92989044293641	47.066882947552486	549.2070200701065	-58.8543659920783	-82.92989044293749	-58.8543659920773	325.57561792273566	
0.6960502005360497	126.62655001045657	48.520683007291424	-95.88352485105692	48.52068300729008	535.1995355962972	-42.50973794863902	-95.88352485105798	-42.509737948638104	315.83583930500055	
0.7495925236542075	131.66540045557906	50.085639201808604	-109.51458339220291	50.08563920180711	504.96525391968584	-28.878952935280335	-109.51458339220397	-28.87895293527955	300.12317515177574	
0.8031348467723651	133.491089822527	49.43730878036777	-122.32121262391077	49.437308780366216	458.08560450738855	-18.39693945692364	-122.3212126239118	-18.396939456922993	279.8788735965306	
0.8566771698905228	130.289298457761	44.48345230203421	-132.9268451425142	44.48345230203267	396.33826502022157	-11.345424827251849	-132.92684514251522	-11.345424827251346	257.26929858207797	
0.9102194930086804	120.61927619821697	33.848993810614196	-140.30457506746617	33.84899381061281	323.74427062857933	-7.904892119655539	-140.30457506746714	-7.904892119655191	235.032126663471	
0.9637618161268381	103.65730447263066	17.14139465623917	-143.88942685423044	17.141394656238013	245.93361754944587	-8.114063325087725	-143.88942685423137	-8.114063325087509	216.14825824532872	
1.0173041392449957	79.68850223451855	-4.7193612794567485	-143.59092524519644	-4.71936127945758	169.5891278798903	-11.757294506697846	-143.59092524519735	-11.757294506697747	203.39592487557204	
1.0708464623631535	50.193842288525424	-29.87262423464911	-139.67673162165005	-29.872624234649578	101.060775344458	-18.281582243853034	-139.67673162165093	-18.281582243853023	198.8413281793902	
1.124388785481311	17.69067097834533	-55.61580794263054	-132.60115036062763	-55.61580794263071	45.6227079863946	-26.774993627649366	-132.60115036062848	-26.774993627649412	203.35842024969057	
1.1779311085994688	-14.241543111670737	-79.0515272369865	-122.87617584634853	-79.05152723698643	6.558756009585373	-36.0949385888308	-122.87617584634938	-36.094938588830885	216.35449009748737	
1.2314734317176266	-41.47503063035565	-97.49178418265303	-110.9935875000589	-97.49178418265274	-15.08624227540637	-45.08061312722067	-110.9935875000597	-45.08061312722076	235.75658204552911	
1.2850157548357841	-59.53145162474674	-109.01525350337218	-97.49448660704006	-109.01525350337181	-20.46855622293546	-52.817374762763286	-97.49448660704086	-52.81737476276335	258.29443392670095	
1.3385580779539419	-64.3879267251577	-112.85168312292866	-83.0890740966982	-112.85168312292825	-12.4694051336471	-58.79149082116094	-83.08907409669902	-58.79149082116096	280.1166804601724	
1.3921004010720994	-53.25811675134882	-109.55553654518579	-68.7419487818935	-109.55553654518539	5.000818707070877	-62.92181703972031	-68.74194878189432	-62.9218170397203	297.50919615927205	
1.4456427241902572	-25.176468829451778	-100.79002463489331	-55.67200120174765	-100.79002463489309	27.931868445784556	-65.45398071149083	-55.672001201748486	-65.45398071149079	307.6697174280732	
1.499185047308415	18.641400698011296	-88.9310681704052	-45.19882201426539	-88.93106817040507	53.1194956359717	-66.77772988995446	-45.19882201426624	-66.77772988995439	309.263366778209	
1.5527273704265725	74.9284193532251	-76.35874089491735	-38.450693092841675	-76.35874089491735	79.04980844423287	-67.29937506690051	-38.450693092842485	-67.29937506690041	302.6264571702055	
1.6062696935447303	139.60151232457682	-64.9241418101374	-36.115804745818366	-64.92414181013753	106.33913281629144	-67.35501866374364	-36.11580474581914	-67.35501866374351	289.6284411518976	
1.6598120166628878	208.50236292689692	-55.55520674940892	-38.2270711685296	-55.55520674940915	137.5150395273566	-67.13280161338123	-38.227071168530294	-67.1328016133811	273.2331610567623	
1.7133543397810456	278.69927577801934	-48.45331604762984	-44.051681851652404	-48.45331604763008	176.5781265068833	-66.5686974884621	-44.051681851653	-66.56869748846199	256.8814136963692	
1.7668966628992033	348.64494210305503	-43.252282282400174	-52.13533778452465	-43.25228228240039	227.6825181492108	-65.2207868199217	-52.13533778452515	-65.2207868199216	243.89948382596756	
1.8204389860173609	417.8981008592097	-39.661459538764674	-60.47566074576574	-39.6614595387649	293.80044868982986	-62.189972344894464	-60.47566074576609	-62.18997234489435	236.9856955066212	
1.8739813091355186	486.1082642535307	-37.65662794257295	-66.8154138695655	-37.656627942573124	375.30050877999213	-56.212064630954906	-66.81541386956573	-56.21206463095477	237.78260175307562	
1.9275236322536762	552.5963421625095	-37.62929895886019	-69.01496929793748	-37.62929895886023	469.43895145872585	-45.995141267534805	-69.01496929793761	-45.99514126753464	246.57379837530902	
1.981065955371834	615.3167538329767	-40.09292018451014	-65.43693907276182	-40.09292018451019	570.2389222877414	-30.730761800729972	-65.43693907276185	-30.730761800729795	262.11947994742553	
2.0346082784899915	671.131608962281	-45.49274132546171	-55.33613390688572	-45.492741325461765	669.3229768589398	-10.616550108660476	-55.33613390688569	-10.616550108660281	281.67718494465174	
2.0881506016081492	716.0599021553014	-53.68442105562116	-39.070862634880534	-53.68442105562126	757.4362275681237	12.851973764203798	-39.07086263488046	12.851973764203997	301.3626240772035	
2.141692924726307	746.0395053405732	-63.85375643465621	-18.100983337323715	-63.853756434656404	826.0152413969041	37.00969528335535	-18.100983337323594	37.00969528335553	316.8449553567327	
2.1952352478444648	757.5334592986216	-74.4026386890506	5.268209233914362	-74.40263868905086	868.7275777838715	58.556295459990686	5.268209233914504	58.556295459990835	324.3010654774706	
2.248777570962622	748.3009087636215	-83.20234289132651	28.315589168036336	-83.20234289132682	882.5131487779789	74.38986420819444	28.31558916803648	74.38986420819455	321.33817182630565	
2.30231989408078	717.9427873754607	-88.07005625456655	48.3797700439365	-88.0700562545669	867.6905712132773	82.46454095091588	48.37977004393663	82.46454095091596	307.5971134856427	
2.3558622171989376	668.423671573439	-87.13082629120542	63.265500008409006	-87.13082629120571	827.8328434006639	82.39868353857185	63.265500008409134	82.39868353857186	284.75015926450754	
2.4094045403170954	603.7508739726059	-79.42145430205821	71.44086472259583	-79.4214543020585	768.4613641144449	75.67508739477898	71.44086472259595	75.67508739477896	255.90385429942154	
2.462946863435253	529.3183695640674	-65.00839103786922	72.08690155995275	-65.00839103786949	695.9077058801594	65.33150145829161	72.08690155995282	65.33150145829154	224.64798259151254	
2.5164891865534105	450.754623194057	-45.163099894008425	65.01655580278205	-45.163099894008695	615.997274298318	55.187249651300505	65.01655580278212	55.187249651300434	194.06675690947142	
2.5700315096715682	372.4902627235093	-22.06646128848341	50.61654200041016	-22.06646128848368	533.120842231091	48.835222123698074	50.61654200041018	48.83522212369802	166.09149023799324	
2.623573832789726	297.0952750251298	1.7116623506053514	29.852449092869243	1.7116623506051099	450.09551872021984	48.569959718672486	29.852449092869236	48.56995971867242	141.35400544162286	
2.6771161559078838	225.16900367983786	23.752012028571613	4.303734651269915	23.752012028571343	368.4026154280157	54.61964129134036	4.303734651269863	54.619641291340315	119.47655393362413	
2.7306584790260415	156.22212865488405	42.48993023637774	-23.82973802582801	42.48993023637751	289.0112182199024	64.90404756289703	-23.829738025828096	64.90404756289703	99.63123927360479	
2.784200802144199	90.07885427034286	57.37403898027044	-51.84916653639176	57.374038980270214	212.8550368270883	75.4942206840903	-51.849166536391884	75.49422068409031	81.09790669993114	
2.8377431252623566	27.881648450000625	69.05616258286464	-76.87371149184428	69.05616258286447	141.26377382892034	81.67128937990546	-76.87371149184443	81.6712893799055	63.62822036085586	
2.8912854483805144	-27.456885329488813	78.85060903469355	-96.2779161400741	78.85060903469346	75.75448469013062	79.28608166734459	-96.27791614007428	79.28608166734466	47.527897374880965	
2.944827771498672	-72.2101554800089	88.29832253100635	-108.18920111736719	88.2983225310063	17.635034141480794	65.97965158874901	-108.18920111736738	65.97965158874909	33.47700381331478	
2.99837009461683	-102.97993515633853	98.40423144783668	-111.8630868775925	98.40423144783676	-32.43960574430654	41.88611464164016	-111.86308687759266	41.886114641640305	22.21619552493087	
3.0519124177349872	-118.46388273485752	109.19552035072832	-107.80128766184772	109.19552035072843	-74.72504795568055	9.592110371755357	-107.80128766184787	9.59211037175551	14.244480393153244	
3.105454740853145	-119.67712837116159	119.66458673500802	-97.56836601314544	119.66458673500821	-109.97666610020528	-26.611587446603366	-97.56836601314558	-26.6115874466032	9.640601881402434	
3.1589970639713028	-110.12064929118793	128.1329072697524	-83.409172283988	128.13290726975256	-139.03242116237408	-61.90176520789633	-83.4091722839881	-61.901765207896176	8.085102173210947	
3.2125393870894605	-94.4182054871684	132.92633502112565	-67.767641073996	132.92633502112588	-162.23688649456807	-92.10253330156458	-67.76764107399605	-92.1025333015644	8.954185500423597	
3.2660817102076183	-77.09314155680893	133.07101393556528	-52.892093289847374	133.0710139355655	-179.26595153452658	-114.5422067042586	-52.8920932898474	-114.54220670425846	11.446128659947309	
3.3196240333257756	-61.48645039176373	128.71568505982958	-40.59479635753754	128.7156850598298	-189.62078646539698	-128.34553980291372	-40.594796357537554	-128.34553980291358	14.63379728006226	
3.3731663564439334	-49.432052038530166	121.23281585814031	-32.099205625346656	121.23281585814054	-192.8920847565716	-134.21647119740587	-32.09920562534664	-134.21647119740575	17.421224486535262	
3.426708679562091	-41.34709095309327	112.73689701723603	-28.050941192297987	112.73689701723626	-189.60646340455955	-133.8223280652004	-28.05094119229797	-133.82232806520028	18.559122001668086	
3.480251002680249	-36.88072486913031	105.51498400116084	-28.53882451768114	105.51498400116103	-180.73260424290993	-129.02904055692275	-28.53882451768112	-129.0290405569227	16.812605751751562	
3.5337933257984067	-35.36429783569106	101.09291270833438	-33.109786321132646	101.09291270833457	-167.79580539050136	-121.2277926220269	-33.109786321132624	-121.22779262202685	11.277923480006457	
3.587335648916564	-36.09135235768911	99.90750232272299	-40.793495564605294	99.90750232272316	-151.82551771270485	-110.96844073656139	-40.79349556460525	-110.96844073656138	1.8203859022223128	
3.6408779720347217	-38.26625495923719	100.90962739580414	-50.177020971550846	100.90962739580434	-133.2547708171184	-97.973939395028	-50.17702097155082	-97.97393939502798	-10.549714989354428	
3.6944202951528795	-41.05252546159196	102.05278086421305	-59.543901290808876	102.05278086421325	-111.72530964172213	-81.5010421523619	-59.54390129080883	-81.50104215236192	-23.63920015681461	
3.7479626182710373	-43.036327933172245	100.75780171134829	-67.10174882563015	100.75780171134848	-87.09053467623517	-60.873228978807525	-67.1017488256301	-60.87322897880755	-34.4243468958371	
3.801504941389195	-42.65059773777459	94.72080185854904	-71.20474366047624	94.72080185854924	-59.790396677306454	-36.032758458618446	-71.20474366047617	-36.03275845861847	-39.802623243870016	
3.8550472645073524	-38.644134542197236	82.59479258123325	-70.64409809783628	82.5947925812334	-31.810821397400183	-7.853056921947049	-70.6440980978362	-7.853056921947067	-37.426421591251724	
3.90858958762551	-30.502057675962106	64.34046430509106	-64.84298844184204	64.34046430509119	-6.530475853214043	21.846370398226114	-64.84298844184195	21.84637039822611	-26.364664911876375	
3.962131910743668	-18.786896914828162	41.16294561660355	-53.982787816440435	41.16294561660367	12.05606714438532	50.62191762880208	-53.98278781644035	50.621917628802095	-7.375477811490395	
4.015674233861826	-5.169101714765816	15.378886299796761	-39.075568772570605	15.378886299796875	20.67892962359292	75.88887698528107	-39.07556877257051	75.88887698528109	17.304097410233048	
4.069216556979983	8.007202335482372	-10.202245322265654	-21.922036403960554	-10.202245322265554	18.117533101867476	95.46648095758658	-21.922036403960462	95.46648095758664	44.5194408066827	
4.122758880098141	18.50716174651928	-32.92518582199341	-4.962835255084801	-32.92518582199334	6.111987099108151	107.98792856688016	-4.96283525508471	107.98792856688026	70.92555185862926	
4.1763012032162985	25.241026083759834	-50.66195435194416	9.051576178795768	-50.66195435194409	-10.332463886865327	113.05506667770054	9.051576178795845	113.05506667770065	93.63674277498646	
4.229843526334456	28.569983213867012	-62.32529757286769	17.489226685486912	-62.325297572867605	-23.80726206931425	111.23047824070976	17.489226685486976	111.23047824070989	110.65315252726035	
4.283385849452614	30.489201410624695	-67.97807743291494	18.348915710262098	-67.97807743291489	-26.217278466053585	103.83088902325156	18.348915710262148	103.83088902325167	120.95139151411414	
4.336928172570771	34.04965221804828	-68.5112642614655	10.7145448002512	-68.51126426146536	-10.52057717934332	92.63568504761702	10.714544800251229	92.63568504761716	124.35568030152598	
4.3904704956889296	42.58724336996172	-65.73684665823468	-4.985177311168073	-65.73684665823453	27.34454827148454	79.6258269717664	-4.985177311168073	79.62582697176654	121.23834201686373	
4.444012818807087	59.10009668369074	-61.614392293174205	-27.001271572518995	-61.614392293174035	87.63328130543937	66.71800425199913	-27.00127157251903	66.71800425199928	112.29339096050855	
4.497555141925244	85.73178835766399	-58.19316235771768	-52.69124825265534	-58.19316235771754	166.62599530748506	55.573067662171745	-52.6912482526554	55.57306766217191	98.41106301832954	
4.551097465043402	123.52738168828866	-57.15145411242648	-79.17620379047732	-57.15145411242633	257.97520387055823	47.455441890031686	-79.1762037904774	47.45544189003185	80.76815816366755	
4.60463978816156	172.46316374574016	-59.72795550918938	-104.04313147201401	-59.72795550918928	354.50866314102007	43.1485847585074	-104.04313147201412	43.14858475850756	61.09281135557194	
4.658182111279718	231.70599755710555	-66.55303197179501	-125.89956457935503	-66.55303197179495	449.7794449547331	42.878625582688144	-125.89956457935516	42.878625582688294	41.89601989465011	
4.711724434397875	299.82040727277337	-77.59615738381396	-144.55380555010603	-77.59615738381396	539.4845321398059	46.36643484026408	-144.5538055501062	46.3664348402642	26.4779226737046	
4.765266757516033	374.8773227363452	-92.0091143055212	-160.7734072597552	-92.00911430552125	621.512651906535	52.882627288765086	-160.7734072597554	52.88262728876517	18.66202650285664	
4.818809080634191	454.3525816484428	-108.18471652809154	-175.76666073105648	-108.18471652809163	695.033939276048	61.454324575529476	-175.76666073105667	61.45432457552953	22.192644724762875	
4.872351403752348	534.8958815819927	-123.92634802604387	-190.64172900246683	-123.92634802604397	759.1768762843943	71.09097742125702	-190.6417290024671	71.09097742125704	39.90323904073942	
4.925893726870506	612.5082898070989	-136.82054651121717	-205.9772441327201	-136.82054651121732	811.8921515167885	80.99317928671817	-205.97724413272033	80.99317928671816	72.88003918026398	
4.979436049988664	682.0771402323372	-144.75183770858226	-221.61531519893404	-144.75183770858246	849.4247099104056	90.64081099457339	-221.61531519893435	90.64081099457334	119.84563988541328	
5.032978373106821	737.9702873920044	-146.3956313936417	-236.74351497670096	-146.3956313936419	867.0583245675132	99.7423298629877	-236.74351497670125	99.74232986298762	176.973124295013	
5.086520696224979	774.3868858385135	-141.52898334100075	-250.0938549477379	-141.52898334100095	860.4392439984724	108.04473783025071	-250.09385494773824	108.04473783025064	238.24230499275322	
5.1400630193431365	786.2598040869823	-131.16457228894072	-260.1461885391477	-131.16457228894083	827.0577419147546	115.13529127252572	-260.146188539148	115.1352912725256	296.2806031041239	
5.193605342461295	770.4445644647935	-117.15997166569565	-265.2692398241268	-117.15997166569579	767.3745651486838	120.32256042002068	-265.2692398241272	120.3225604200206	343.59359756612514	
5.247147665579452	726.7117998272824	-101.72721841877384	-263.86794447833813	-101.72721841877407	684.6179387463983	122.6980374461734	-263.8679444783385	122.69803744617334	373.93178432539526	
5.300689988697609	658.5386247611747	-86.66166036569504	-254.57427800060657	-86.66166036569525	584.4227294437361	121.39219815274069	-254.5742780006069	121.39219815274063	383.5054172695024	
5.3542323118157675	573.0058784272419	-72.88353170669681	-236.5563169236819	-72.88353170669701	473.2221391717194	115.89868787368331	-236.5563169236822	115.89868787368333	371.781393358319	
5.407774634933925	479.8987982019302	-60.06626493813216	-209.8835258412263	-60.06626493813242	357.5462280633536	106.32829262258987	-209.88352584122657	106.3282926225899	341.6326134752063	
5.461316958052083	389.6774398271501	-46.99464834316226	-175.80116726738976	-46.994648343162595	242.88789243187944	93.47932512806351	-175.80116726738993	93.47932512806359	298.8266693499038	
5.51485928117024	311.30094505286144	-31.976830692437417	-136.7540042014418	-31.976830692437886	134.02702687660064	78.71368526357531	-136.7540042014419	78.7136852635754	250.94025586680453	
5.568401604288398	249.98556946650504	-13.514740882230672	-96.10516270838389	-13.514740882231257	34.53142484106624	63.717304632154125	-96.10516270838394	63.71730463215427	205.98520147323808	
