# Stress in units of bar (10^5 Pa)
# z	Sxx	Sxy	Sxz	Syx	Syy	Syz	Szx	Szy	Szz
0.0	-147.3821206224701	155.52478707235454	97.58101139083308	155.52478707235528	305.2453497742832	-129.51646656337275	97.58101139083318	-129.51646656337326	81.08124984454457	
0.05478632188515977	-143.0309808090713	156.53283357584627	80.00668976444118	156.53283357584698	321.26672052465824	-129.51074832544663	80.00668976444135	-129.51074832544714	68.53485488579942	
0.10957264377031954	-139.33101866849205	158.64359162761662	62.849690661621494	158.64359162761727	332.90354499169007	-127.58943405706039	62.84969066162173	-127.5894340570609	58.35567336293926	
0.1643589656554793	-136.22395718230106	161.87752114856576	46.98609976500748	161.8775211485664	339.78883197752197	-124.14387854729004	46.98609976500776	-124.1438785472905	50.829679807878996	
0.21914528754063908	-133.44128536288005	166.2617417270434	33.159211884159475	166.26174172704398	342.21297344872926	-119.73969419320366	33.15921188415979	-119.73969419320409	46.131869436828524	
0.27393160942579886	-130.4245451982958	171.84380097949256	21.902882350679473	171.8438009794931	341.0258532016498	-114.9967536044842	21.90288235067979	-114.99675360448458	44.35461390546096	
0.3287179313109586	-126.61978394625024	178.64377687459765	13.49041569976772	178.64377687459816	337.571486394593	-110.4927062955386	13.490415699768064	-110.49270629553894	45.493361182221115	
0.3835042531961184	-121.17515720017835	186.54966344657618	7.91467103446249	186.54966344657666	333.3701893352513	-106.64835004779525	7.914671034462861	-106.64835004779557	49.44765550128923	
0.43829057508127817	-113.49097310718551	195.33888623733162	4.8896136470706715	195.33888623733208	329.96112579250143	-103.67066684698901	4.889613647071075	-103.67066684698932	55.97670539482866	
0.4930768969664379	-102.97788292898812	204.57780844015295	3.934614518248077	204.57780844015332	328.4033113192023	-101.53096519857834	3.9346145182485195	-101.53096519857866	64.67052408593062	
0.5478632188515977	-89.42135765798675	213.62582008671467	4.4605949566806755	213.62582008671495	329.3252092575483	-99.99056510556612	4.460594956681172	-99.99056510556645	74.95431374857486	
0.6026495407367575	-72.82090944298469	221.71570640390297	5.896986574377033	221.7157064039032	332.5901670684693	-98.68302514910323	5.896986574377595	-98.68302514910359	86.10321928792092	
0.6574358626219172	-53.625437440420896	228.00791140120558	7.786561980126732	228.00791140120572	337.4182950873267	-97.20754245452021	7.786561980127374	-97.20754245452059	97.28711807824355	
0.712222184507077	-32.67739712650837	231.75642243586168	9.873385178107727	231.75642243586174	342.51893268758215	-95.23706192313001	9.873385178108448	-95.23706192313044	107.62120231122054	
0.7670085063922368	-11.23227753039685	232.363104656679	12.125891044950428	232.363104656679	346.3141960548948	-92.5764983296678	12.125891044951222	-92.57649832966827	116.25881919757055	
0.8217948282773966	9.183894451318139	229.499563595051	14.710044616780337	229.49956359505097	347.11451201893374	-89.21834698902894	14.71004461678119	-89.21834698902946	122.42821933368143	
0.8765811501625563	26.817116953154716	223.16149692538676	17.928025555832107	223.16149692538667	343.68549229780695	-85.34816045042226	17.928025555833003	-85.34816045042278	125.4720287109173	
0.9313674720477161	39.823370503371	213.62896186359654	22.107943835075744	213.62896186359646	335.2865048856429	-81.28131192772739	22.10794383507665	-81.28131192772791	124.9263575968705	
0.9861537939328758	46.76845582087721	201.33891394761437	27.484110272857148	201.33891394761432	321.96998378684674	-77.40087536728916	27.48411027285805	-77.40087536728966	120.54776492138332	
1.0409401158180356	46.7957855045327	186.9294767752892	34.10548167050876	186.92947677528915	304.81917899346183	-74.07477469519876	34.10548167050962	-74.07477469519921	112.35586089260644	
1.0957264377031954	39.95204783643143	170.99594817911898	41.77116191374393	170.99594817911895	285.7313730874349	-71.57765380495638	41.77116191374471	-71.57765380495678	100.68713654450424	
1.150512759588355	27.457448209976967	154.05009989374605	50.06449780047512	154.0500998937461	267.3432799096498	-70.01569497092014	50.06449780047581	-70.01569497092044	86.2340709841541	
1.205299081473515	11.399477525574476	136.4820485364142	58.390834095781756	136.48204853641423	252.6597494183838	-69.32294393207313	58.39083409578237	-69.32294393207334	70.07631725469012	
1.2600854033586748	-5.037436066455644	118.57559258114043	66.07885697736486	118.57559258114051	244.7150547874163	-69.25277773259793	66.07885697736535	-69.25277773259805	53.65877169627428	
1.3148717252438344	-18.493830841379655	100.55959644258895	72.50752431294848	100.55959644258903	246.0231296830811	-69.4283852991674	72.50752431294885	-69.42838529916742	38.718843490058234	
1.3696580471289943	-25.532165327019158	82.5843578154134	77.21482557631536	82.58435781541345	258.3077726992481	-69.40800681340353	77.21482557631566	-69.40800681340347	27.128793035873652	
1.424444369014154	-23.409401810879118	64.75375057227878	79.99153161328493	64.75375057227883	282.2215998836194	-68.74472006269737	79.99153161328513	-68.74472006269724	20.70587086571767	
1.4792306908993138	-10.33319485115203	47.29173062583666	80.90285880536113	47.291730625836664	317.25527476521546	-67.05124255594413	80.90285880536129	-67.05124255594396	20.971635641054448	
1.5340170127844737	14.165635834956618	30.335702438822494	80.23440136313134	30.335702438822423	361.751570908707	-64.05548197262333	80.23440136313144	-64.05548197262313	28.939762682572123	
1.5888033346696333	49.36092873689071	14.086525365142462	78.41724844668818	14.086525365142318	413.248806385416	-59.63244344608985	78.41724844668826	-59.63244344608965	44.89762807691686	
1.6435896565547932	93.39714532769538	-1.3552548459758995	75.89872129340174	-1.3552548459760843	468.6546601305071	-53.82395205364165	75.89872129340182	-53.82395205364147	68.30443607564311	
1.6983759784399528	143.58544585251747	-15.88863944842742	73.05465982300875	-15.888639448427664	524.5850865141772	-46.85494917965653	73.05465982300883	-46.85494917965638	97.77237520295863	
1.7531623003251127	196.81835445719403	-29.495597033741582	70.1083388512796	-29.495597033741888	577.7876566203793	-39.10081300011203	70.10833885127973	-39.10081300011193	131.1954878094959	
1.8079486222102725	249.9017100723944	-42.14251151683259	67.1155657602545	-42.14251151683294	625.2116162311044	-31.068383904153638	67.11556576025463	-31.068383904153578	165.9942045925968	
1.8627349440954322	299.822765560059	-53.84664918512682	64.0033386194455	-53.84664918512718	664.3691937157888	-23.314240405806174	64.00333861944564	-23.314240405806192	199.46810649651144	
1.917521265980592	344.06256148732234	-64.65144539128048	60.615654152342316	-64.6514453912809	693.4018283530875	-16.361476485392373	60.61565415234251	-16.36147648539245	229.19301614611737	
1.9723075878657517	380.4111986408118	-74.56293532690603	56.7677019187286	-74.5629353269064	711.1275624009572	-10.614143826191558	56.767701918728804	-10.614143826191697	253.38186593084586	
2.0270939097509113	407.2139460754231	-83.56458068293313	52.27771830185304	-83.56458068293344	717.109881693157	-6.272653024500715	52.27771830185327	-6.27265302450088	271.1560696707658	
2.081880231636071	423.0566139181951	-91.68879719684375	46.93762933950194	-91.68879719684405	711.5022733307526	-3.286474159163717	46.937629339502166	-3.2864741591639266	282.6496765535986	
2.136666553521231	426.8869040623617	-98.83638961000935	40.48203383158007	-98.8363896100096	694.9312983496901	-1.3509519358230655	40.4820338315803	-1.3509519358232822	288.91775449428326	
2.191452875406391	417.94396416355744	-104.86753049758052	32.543402750922624	-104.8675304975807	668.2663635648778	0.041823131250360746	32.54340275092284	0.0418231312501689	291.69293848937315	
2.2462391972915507	395.8718153372961	-109.60770118144697	22.66668981886724	-109.60770118144713	632.3696831233802	1.492395817142576	22.666689818867447	1.4923958171424054	292.98353716601093	
2.30102551917671	360.9489601778314	-112.80295204912912	10.371392908932432	-112.80295204912923	588.0657862049981	3.577462070241605	10.371392908932613	3.5774620702414666	294.6242655787996	
2.35581184106187	314.29571543930814	-114.22128602672802	-4.710816919248963	-114.22128602672808	536.0031772382928	6.691704269627941	-4.710816919248813	6.691704269627845	297.8881238684443	
2.41059816294703	258.0326665955146	-113.77194511825388	-22.69270374583955	-113.77194511825395	476.90169562116637	10.948243508265055	-22.692703745839424	10.948243508264994	303.2454220064965	
2.4653844848321897	195.34478272193064	-111.48531136429926	-43.260109832401014	-111.48531136429929	411.62098742369994	16.14900438721277	-43.260109832400914	16.14900438721275	310.2513130835525	
2.5201708067173496	130.29694954401032	-107.61051895193705	-65.59608751696267	-107.61051895193711	341.5516723653996	21.795943651083373	-65.59608751696263	21.795943651083398	317.6564120585937	
2.574957128602509	67.52649522640316	-102.59593585230442	-88.4004202521343	-102.59593585230452	268.6761352524045	27.200880743780658	-88.40042025213425	27.2008807437807	323.6843313647253	
2.629743450487669	11.5549618271462	-96.995291450836	-110.0281281829804	-96.99529145083609	195.56022521617734	31.593645483494385	-110.02812818298038	31.593645483494463	326.34697143324325	
2.6845297723728287	-33.50108121122858	-91.48666709363427	-128.70406660218103	-91.48666709363437	125.2872138588924	34.28717035783524	-128.70406660218103	34.28717035783534	323.8286361948997	
2.7393160942579886	-64.83755846640194	-86.64957247861332	-142.79600672582035	-86.64957247861344	61.03387968763266	34.80013004876999	-142.79600672582038	34.80013004877011	314.7711384279623	
2.7941024161431485	-81.14089500251981	-82.93969182779587	-151.0597074243476	-82.93969182779597	5.524836683590536	32.93546137018747	-151.05970742434764	32.935461370187596	298.47682996161836	
2.848888738028308	-82.87652298213432	-80.54718699041743	-152.81824569154173	-80.54718699041757	-39.18786042556616	28.84201324245642	-152.8182456915418	28.842013242456545	274.99503838838444	
2.9036750599134677	-72.14405805455236	-79.42030342848932	-148.04034838853013	-79.4203034284895	-72.25482786004116	22.968581142451963	-148.04034838853016	22.968581142452095	245.0800342449013	
2.9584613817986276	-52.29469155268099	-79.1950101359138	-137.32508817128362	-79.195010135914	-93.97049407356074	15.989632694573691	-137.32508817128365	15.989632694573817	210.0861343995358	
3.0132477036837875	-27.478046248752563	-79.23609750747495	-121.77252927366126	-79.23609750747515	-105.75109195129285	8.650877284708105	-121.77252927366129	8.650877284708223	171.7505673290054	
3.0680340255689473	-1.9709342664017981	-78.78156851886447	-102.83276062471907	-78.78156851886467	-109.8224570750904	1.6824390170591315	-102.83276062471911	1.6824390170592451	131.9881942049836	
3.1228203474541067	20.378865341206616	-77.04649665888046	-82.08957236640201	-77.04649665888064	-109.04137760981484	-4.340365895979417	-82.089572366402	-4.340365895979307	92.68124843714945	
3.1776066693392666	36.80311284665282	-73.26396342490116	-61.07411082513822	-73.26396342490136	-106.26727072958403	-9.055266050289688	-61.074110825138206	-9.055266050289589	55.47301417971556	
3.2323929912244265	45.59303378190758	-66.94992267505162	-41.11243761426609	-66.94992267505181	-104.23783764115367	-12.302728872511997	-41.11243761426607	-12.30272887251191	21.704306865160998	
3.2871793131095863	46.444194599218804	-57.97033458559246	-23.215127502624007	-57.97033458559263	-105.2533199376562	-14.085906834628865	-23.215127502623975	-14.085906834628794	-7.611320118776355	
3.341965634994746	40.25809603644043	-46.57783141249258	-8.037821861085359	-46.57783141249273	-110.86400342957468	-14.520447367246067	-8.03782186108532	-14.520447367245986	-31.76542129665471	
3.3967519568799056	28.872569808227077	-33.393754930519336	4.08955204658313	-33.39375493051948	-121.75903668784512	-13.762757928014652	4.089552046583198	-13.762757928014581	-50.29144932640806	
3.4515382787650655	14.899119435026684	-19.33971052556622	13.156554686925695	-19.33971052556635	-137.71377310813193	-11.962175761079513	13.156554686925773	-11.96217576107944	-62.921664980996795	
3.5063246006502253	0.9743641410796684	-5.503220522554038	19.393156747252053	-5.503220522554145	-157.64296059965474	-9.275727368054158	19.39315674725214	-9.27572736805408	-69.53392027762246	
3.561110922535385	-10.087560278661112	7.047977854518248	23.15733039523785	7.04797785451812	-179.61963843610522	-5.884050705652147	23.157330395237942	-5.884050705652054	-70.11670067870949	
3.615897244420545	-16.013812331907655	17.486726332543796	24.860808501991276	17.486726332543697	-201.35298524816673	-2.0497995854580893	24.860808501991364	-2.0497995854580005	-64.77448973006827	
3.6706835663057045	-15.110043101540136	25.12079649246749	24.883661497328216	25.12079649246739	-220.36600653486852	1.8567311991686637	24.88366149732832	1.8567311991687667	-53.730910977958075	
3.7254698881908643	-6.563421870044522	29.6263086028368	23.48451999663378	29.626308602836744	-234.39480665657894	5.369726659175813	23.48451999663387	5.3697266591759245	-37.29332560557576	
3.780256210076024	9.439111335688324	31.00898530274331	20.79657282809123	31.00898530274326	-241.73513826045547	8.002476684523764	20.796572828091325	8.002476684523877	-15.843301592507764	
3.835042531961184	31.681974791445924	29.52088614161751	16.81707540738065	29.52088614161747	-241.32639177403746	9.313625418128751	16.817075407380738	9.313625418128886	10.223414462588199	
3.889828853846344	58.10429747051149	25.835638494480705	11.448352405703039	25.83563849448068	-232.83340158834372	9.017067781002018	11.44835240570313	9.017067781002153	40.50324985676769	
3.9446151757315033	85.86390218541824	20.978398374034423	4.576501395838566	20.978398374034445	-216.83214769232768	7.066179747381616	4.576501395838658	7.06617974738176	74.57548661701065	
3.999401497616663	111.93954084097945	16.05459120027944	-3.8172702549745727	16.05459120027946	-194.14043552247404	3.6595430040957	-3.8172702549744715	3.6595430040958625	111.89649724008875	
4.054187819501823	133.35036103538093	12.390851812227382	-13.575436384481549	12.390851812227424	-166.03255513661276	-0.7492721192715579	-13.575436384481431	-0.7492721192713914	151.71618540967094	
4.108974141386983	147.73581684456337	11.266048567478244	-24.28908657628427	11.266048567478336	-133.91972412293865	-5.537480875326757	-24.28908657628415	-5.537480875326587	193.00849225760044	
4.163760463272142	153.62246321292193	13.71675332848428	-35.28499911891256	13.716753328484344	-99.1421711784314	-10.015893452547147	-35.284999118912424	-10.015893452546969	234.46113859195043	
4.218546785157303	150.87908182649085	20.120825839075493	-45.63338453664379	20.12082583907557	-62.88953188540273	-13.553490353273052	-45.633384536643646	-13.553490353272863	274.5867392493764	
4.273333107042462	140.5437320777694	30.199281810097034	-54.244117307447524	30.199281810097105	-26.185798078041948	-15.682169722915704	-54.24411730744737	-15.682169722915521	311.8512916275095	
4.3281194289276215	124.9348389052089	43.04272681260287	-59.97449493689375	43.04272681260289	10.268394859240836	-16.1802292496864	-59.97449493689358	-16.18022924968623	344.8752664167607	
4.382905750812782	107.13263992334367	57.020072572521315	-61.77959132079762	57.02007257252137	46.10670957883539	-15.107917695131967	-61.77959132079745	-15.107917695131812	372.55836764356985	
4.437692072697941	90.74888717911442	70.2748452038425	-58.84181618556776	70.27484520384253	81.19161609574837	-12.810774786187123	-58.8418161855676	-12.810774786186979	394.1055894684496	
4.4924783945831015	79.34859902979701	81.11206300112575	-50.69905128424179	81.11206300112576	115.67810614159299	-9.897973598922668	-50.69905128424165	-9.89797359892254	409.0196179972089	
4.547264716468261	76.11679245975778	88.29581167463371	-37.33287832893416	88.29581167463365	149.87178244901648	-7.157255512248005	-37.332878328934015	-7.157255512247893	416.9581471166385	
4.60205103835342	83.51419261400606	91.3534122987788	-19.198342750421684	91.35341229877872	184.14750934569483	-5.4454652160794845	-19.198342750421546	-5.445465216079384	417.60050179423877	
4.656837360238581	103.033790517238	90.64964058830661	2.7986325737437188	90.64964058830653	218.81657446360924	-5.570068879598282	2.7986325737438422	-5.570068879598212	410.6020174237938	
4.71162368212374	135.27488514567727	87.16844073019287	27.342103038900113	87.16844073019273	254.34222117024413	-8.150380044060565	27.342103038900213	-8.150380044060508	395.66899156079035	
4.7664100040089	179.8603062769699	82.22076130418796	52.84288232850391	82.22076130418775	291.070595792072	-13.484420056236589	52.84288232850398	-13.484420056236543	372.691512302698	
4.82119632589406	235.64863586717945	76.99232864738767	77.5962718832022	76.99232864738745	329.3512221066401	-21.45387337706342	77.59627188320226	-21.453873377063413	341.9612616091207	
4.875982647779219	300.7141024525302	72.19778038880169	99.94494365489356	72.19778038880148	369.5335236150843	-31.47355881525656	99.94494365489359	-31.473558815256556	304.37409788382575	
4.9307689696643795	372.5469434463944	67.89090282883855	118.45959108612018	67.89090282883829	411.8378197659786	-42.5017293488671	118.4595910861202	-42.501729348867116	261.5295787423936	
4.985555291549539	448.13644039245224	63.43858056830216	132.08206102761775	63.43858056830189	456.2641558389788	-53.155035436225674	132.08206102761773	-53.1550354362257	215.68606072772874	
5.040341613434699	524.0692555751183	57.78199264786686	140.2119256568114	57.781992647866545	502.36942067148453	-61.87874655195488	140.21192565681136	-61.878746551954926	169.55589063902335	
5.095127935319859	596.5274008842864	49.726854072548946	142.75233147483019	49.726854072548704	549.0605726307863	-67.17194290464082	142.7523314748301	-67.17194290464087	125.97991769138777	
5.149914257205018	661.5885131633437	38.3569776937129	140.05793115172236	38.35697769371267	594.5385125867577	-67.79044650838397	140.05793115172227	-67.79044650838404	87.56047869488887	
5.204700579090178	715.1652536953932	23.32709098570462	132.862527479911	23.32709098570439	636.180269389834	-62.94922096081443	132.86252747991088	-62.949220960814536	56.332760911569224	
5.259486900975338	753.5064568153658	5.027920209507695	122.14163704980689	5.027920209507496	670.8902791255084	-52.405867840262275	122.14163704980677	-52.4058678402624	33.53684289020168	
5.314273222860498	773.3869116063943	-15.376179148292586	108.99425640726172	-15.376179148292842	695.2649298725303	-36.492125927990486	108.99425640726162	-36.492125927990635	19.538362606372605	
5.3690595447456575	772.4086545975347	-36.284082430864714	94.48394035526753	-36.28408243086502	706.1505296250384	-16.02307782088627	94.48394035526744	-16.023077820886435	13.869698032479649	
5.423845866630817	749.3603618482313	-55.858933235638894	79.56527112114449	-55.858933235639256	700.913114483302	7.837071610753549	79.56527112114443	7.837071610753366	15.392348323376794	
5.478632188515977	704.4726117780735	-72.42201516386558	65.01037717647561	-72.42201516386602	678.0143245633728	33.741837085234	65.0103771764756	33.74183708523381	22.52259980228898	
5.533418510401137	639.3774568799801	-84.72747465881781	51.3637713073318	-84.72747465881835	637.1339940294342	60.32373057454525	51.36377130733182	60.32373057454507	33.49429317080383	
5.588204832286297	557.1142090979071	-92.22051874431368	38.958778466455215	-92.22051874431438	579.3477487165193	86.32163568994517	38.95877846645527	86.32163568994498	46.610283928588515	
5.642991154171456	461.72642104805396	-94.97549842231857	27.93297711965705	-94.9754984223193	506.8780988262493	110.62587981244693	27.93297711965714	110.62587981244673	60.42775707396734	
5.697777476056616	358.00264703827867	-93.7268318455476	18.273478494816104	-93.72683184554847	422.9584073941701	132.29670302803262	18.273478494816235	132.29670302803245	73.8797517395441	
5.752563797941776	250.94725227541292	-89.54825871803087	9.887603828701813	-89.5482587180318	331.4035457197455	150.54744618628382	9.887603828701968	150.54744618628368	86.29453085642149	
