# Stress in units of bar (10^5 Pa)
# z	Sxx	Sxy	Sxz	Syx	Syy	Syz	Szx	Szy	Szz
0.0	47.60422442772317	54.20077100595975	-22.578838698913806	54.200771005959794	92.56366808979098	-20.428940438124833	-22.57883869891343	-20.428940438124833	95.71188681087938	
0.04854082593347447	87.71104049644136	56.67117493057202	-7.629272243896864	56.67117493057204	129.71696666026216	-13.977865642443312	-7.629272243896483	-13.977865642443293	110.97608977661037	
0.09708165186694893	128.03996683871586	57.96459876982814	5.7355870962533135	57.964598769828164	173.2654182544175	-5.149053838647353	5.735587096253699	-5.14905383864733	122.07872922496453	
0.1456224778004234	153.4519481126669	55.76740239823654	14.763777148601207	55.7674023982366	205.91693938918942	3.109473380956669	14.763777148601601	3.109473380956701	125.82123280040142	
0.19416330373389787	159.65924114890083	49.86772084282288	17.795125959838828	49.86772084282299	217.38442725475275	9.562757196462556	17.795125959839215	9.562757196462623	120.5695814789006	
0.24270412966737234	154.12447372467386	40.545745475285635	15.363657930273636	40.545745475285756	207.8565115975941	14.17093377509541	15.363657930273986	14.17093377509553	108.33462139680735	
0.2912449556008468	147.23325973511396	27.021927895838104	10.103640112313162	27.021927895838218	185.16818977398896	16.80531808761842	10.10364011231345	16.80531808761858	93.86071134670408	
0.33978578153432126	144.02805010719945	9.066104877652847	5.477467923351676	9.066104877652904	160.03240794576203	16.797494985128615	5.477467923351876	16.79749498512878	81.8342997598324	
0.38832660746779574	143.4207494912273	-10.923300118221153	4.164049824662117	-10.923300118221157	141.50421566924058	13.147204673228948	4.164049824662222	13.147204673229083	75.02652985760497	
0.4368674334012702	143.0334609685821	-28.72727472207339	6.826049150798776	-28.727274722073474	133.34882791492456	4.735092254077469	6.826049150798799	4.73509225407757	74.27565996205922	
0.4854082593347447	143.8211967723003	-41.431720306464484	11.827826949426681	-41.43172030646467	133.56242872534085	-9.089267790229048	11.827826949426646	-9.089267790228952	79.14705201031008	
0.5339490852682192	150.1279677340399	-49.444320591595776	16.140009506966038	-49.444320591596046	136.9907554344323	-27.231759958944195	16.14000950696598	-27.23175995894409	88.28814858973179	
0.5824899112016936	164.5455498707124	-54.95493386430226	16.883381358357823	-54.954933864302554	137.3143705974126	-46.07997545071606	16.88338135835778	-46.07997545071598	99.57138699046922	
0.6310307371351681	183.66448588284217	-58.04566935292119	12.738951340367604	-58.04566935292146	129.91585049840953	-60.74114525701174	12.738951340367601	-60.74114525701172	110.41078328508945	
0.6795715630686425	200.2607571323822	-55.25168671628797	4.701100166458162	-55.251686716288184	117.50799086648027	-67.77052548979243	4.701100166458196	-67.77052548979252	118.29468007444683	
0.728112389002117	209.77294396835234	-43.27612957872091	-4.310844204065653	-43.276129578721	110.49181814277986	-66.80524955093568	-4.310844204065603	-66.80524955093588	121.61549602985468	
0.7766532149355915	212.2959844056923	-23.600800434127517	-11.100200403006898	-23.600800434127514	115.48443789293012	-59.59720480420374	-11.100200403006863	-59.597204804204	120.58729627912865	
0.8251940408690659	207.15239374191924	-2.5616482810693455	-14.128495130576901	-2.5616482810692904	124.3931336519488	-48.14499328482969	-14.128495130576905	-48.14499328483001	117.23165133388243	
0.8737348668025404	189.01739899576364	12.808447879403104	-14.19722708587093	12.808447879403204	120.61100162116861	-34.31961667166357	-14.19722708587098	-34.31961667166389	114.09338992816973	
0.9222756927360148	153.82796151143256	19.004840124960474	-13.393642030665118	19.004840124960587	95.832470535243	-20.612493807369923	-13.393642030665179	-20.6124938073702	113.20466050287615	
0.9708165186694894	107.1987416686176	17.751972062483624	-13.535040781882925	17.75197206248374	56.68324051368127	-9.963008033662874	-13.535040781882953	-9.963008033663105	116.19780302540809	
1.0193573446029638	63.207734720492155	14.782201685479436	-15.358546241922664	14.782201685479519	16.345963615618558	-4.240979249656345	-15.358546241922626	-4.24097924965654	124.12278398599804	
1.0678981705364383	35.62241927744318	16.03272405820986	-18.334405338870535	16.032724058209865	-15.490553494129987	-2.7755070872428593	-18.334405338870432	-2.7755070872430525	136.35995496173135	
1.1164389964699128	31.363621190470624	22.98603686273406	-20.83685936699096	22.986036862733993	-35.055771907639844	-2.246084071560966	-20.836859366990804	-2.24608407156117	150.55570845092788	
1.1649798224033872	46.748709665399545	31.757694121765425	-21.08655238499	31.757694121765322	-43.80822236771449	1.5008278809471824	-21.08655238498982	1.5008278809469826	164.37170211921188	
1.2135206483368617	66.62554482864385	37.80396620608497	-18.446997001694772	37.803966206084866	-48.45821935115925	10.3675925199453	-18.446997001694587	10.367592519945132	176.93803387717634	
1.2620614742703362	72.0458192374824	40.00020207183815	-13.713856020528166	40.000202071838046	-58.356804691435855	22.114264697729794	-13.713856020527976	22.114264697729674	188.49718209485448	
1.3106023002038105	52.99574217821708	39.316530731159794	-8.23833566034803	39.31653073115967	-79.85668824741062	31.855159510995193	-8.238335660347838	31.855159510995108	199.28852530678287	
1.359143126137285	12.824856470624109	36.28103489603669	-3.132621256431982	36.281034896036566	-112.81870509307932	35.782670627757355	-3.1326212564318046	35.7826706277573	209.087940845997	
1.4076839520707596	-37.22913410401316	31.686445375405498	0.8404144024932533	31.686445375405384	-150.62844180605808	33.79620148267158	0.8404144024933871	33.796201482671556	217.43111046987556	
1.456224778004234	-84.08156946529822	27.63163265042591	3.16256609575124	27.63163265042582	-182.17297659805257	29.455989171861077	3.162566095751308	29.45598917186108	223.82702445616223	
1.5047656039377084	-116.46605309224938	26.21962352467119	3.7202167259979513	26.219623524671146	-196.87408762010222	27.751129166088703	3.7202167259979606	27.75112916608871	227.42055016912332	
1.553306429871183	-129.2910104978914	28.554215506900583	3.147291285324628	28.55421550690061	-192.9683233096948	31.489014862705652	3.147291285324606	31.48901486270566	226.6319082702531	
1.6018472558046575	-125.1488029955365	35.57995892022724	2.6540754590049174	35.57995892022734	-180.28878383001728	38.348509270611466	2.6540754590048996	38.34850927061147	220.11813639138353	
1.6503880817381318	-109.15801220897782	47.775913217331926	2.932660412720215	47.775913217332125	-169.70222954757048	41.88488519893774	2.932660412720214	41.884885198937745	208.871904915223	
1.6989289076716063	-83.81904505738639	62.96992699907791	3.276650346466115	62.96992699907817	-159.39283718631307	36.64594566891164	3.27665034646612	36.64594566891165	197.1216367633316	
1.7474697336050808	-52.358396057364445	75.99905351358304	2.606115479748797	75.99905351358329	-138.17407194516898	22.6324564229456	2.606115479748782	22.632456422945637	190.77987100188736	
1.7960105595385554	-24.15859061446509	81.80588385180195	1.5522530132621872	81.80588385180218	-102.94379812344765	4.800244585116175	1.552253013262149	4.800244585116228	194.81336485796777	
1.8445513854720297	-8.285643346269566	79.51856086552999	2.2842098024807598	79.51856086553015	-63.947747375750716	-11.302955376910187	2.2842098024807242	-11.30295537691012	210.97663884041634	
1.8930922114055042	-0.004201223744829008	73.61519571627451	5.108570625596744	73.61519571627456	-29.39373720599083	-23.228950006103624	5.108570625596749	-23.228950006103542	235.98751729484928	
1.9416330373389787	19.649764408209094	70.64284289904063	6.118633687737508	70.64284289904053	7.039696513001386	-31.54053748443234	6.118633687737582	-31.540537484432257	261.02113520821683	
1.990173863272453	66.35672424890885	74.11717944344642	0.5671838051009583	74.1171794434462	58.25673370714682	-36.91007674582882	0.5671838051010969	-36.91007674582877	274.56201492389783	
2.0387146892059276	136.38299187571812	81.91613764144255	-10.668856124969881	81.91613764144225	128.478853462139	-38.167962954068614	-10.668856124969727	-38.16796295406861	268.71716013181356	
2.087255515139402	209.61312039296934	87.43232539699474	-19.940338876231365	87.4323253969944	210.97488009400902	-33.382576283199924	-19.940338876231216	-33.38257628319997	245.15289898690594	
2.1357963410728766	267.9097189368692	82.63670668885305	-19.479758812057444	82.63670668885268	297.1578136164468	-22.27134275556187	-19.479758812057327	-22.271342755561918	215.0863246852192	
2.184337167006351	308.9244163680603	61.894220267787446	-7.9449007821763225	61.894220267787084	382.1863711523599	-7.327794028480834	-7.944900782176265	-7.327794028480879	191.87698147786512	
2.2328779929398257	343.07972876142946	27.120575614611113	10.101831138044206	27.12057561461076	462.0111767616376	7.001163107379133	10.101831138044183	7.0011631073791	182.44872369452975	
2.2814188188733	381.7291864199483	-9.882410319845517	28.922574709418726	-9.882410319845818	529.472354127634	16.025301911553267	28.922574709418626	16.025301911553242	185.42066455074115	
2.3299596448067743	431.3912891879578	-35.19750575091698	44.68306853274396	-35.19750575091718	577.5494191777398	16.035392245484765	44.6830685327438	16.035392245484736	195.41296932047936	
2.378500470740249	495.40174204659127	-46.232393442457045	56.24609495221877	-46.23239344245711	607.9208895169594	5.1008702668712935	56.24609495221857	5.100870266871259	205.9862831876365	
2.4270412966737234	572.7751276487807	-54.3213871882447	65.20906158723402	-54.32138718824463	632.9138755244197	-15.220475296372769	65.2090615872338	-15.220475296372808	209.0992902669958	
2.475582122607198	651.127631141427	-70.33737354611452	74.4167729235826	-70.33737354611439	663.251406876351	-38.34703650985135	74.41677292358241	-38.34703650985139	197.53781257775006	
2.5241229485406724	706.7504004519086	-91.20290313012922	85.09143400263237	-91.20290313012907	693.3874018521385	-55.13779270767392	85.09143400263223	-55.137792707673945	172.78206244710478	
2.572663774474147	721.7992140390538	-104.51571105380441	95.50992110488224	-104.51571105380432	705.2062279984963	-60.01238672969671	95.50992110488215	-60.012386729696686	148.89152844559487	
2.621204600407621	700.5828466997787	-102.23917023698961	102.66682891525221	-102.23917023698954	689.1793640543494	-54.40490403026118	102.66682891525218	-54.4049040302611	143.39767498457164	
2.6697454263410956	661.2521579159966	-86.6849615846755	104.33040932874877	-86.68496158467548	655.794408446919	-44.06026611769702	104.3304093287488	-44.06026611769691	161.9318154412991	
2.71828625227457	615.5108191708177	-67.22016275704296	98.90843897133277	-67.22016275704293	621.8142987867658	-34.21448688543407	98.90843897133277	-34.21448688543396	193.41700067984533	
2.7668270782080446	564.4470448192776	-53.51226865599443	84.71924768365861	-53.512268655994355	590.116214171597	-27.41121236472651	84.71924768365864	-27.41121236472644	221.815363313722	
2.815367904141519	508.37243549869174	-49.23065972853806	61.66255296075903	-49.23065972853797	547.6945220960475	-23.91257470378124	61.662552960759044	-23.912574703781207	241.61481222295228	
2.8639087300749937	450.1781417674781	-50.1001010567565	33.67376284494914	-50.10010105675639	481.50618101047303	-22.589935446485804	33.67376284494914	-22.589935446485796	259.91255590169914	
2.912449556008468	391.3728796924287	-47.96450281993394	7.502041817392251	-47.96450281993381	394.529337700705	-21.474542809610487	7.502041817392239	-21.474542809610487	283.55269965387345	
2.9609903819419423	331.8246760147269	-37.601147153911654	-11.894020086717871	-37.60114715391152	305.6040012701849	-18.222179025899738	-11.894020086717891	-18.222179025899724	307.63639421467803	
3.009531207875417	272.7491768133505	-20.66927079055001	-24.018311158074432	-20.669270790549874	232.6959186815328	-11.099139297239393	-24.018311158074464	-11.099139297239374	319.6483607974935	
3.0580720338088914	216.85291339206915	-3.6864246157446416	-31.21390952742629	-3.6864246157445066	179.2505110238535	-0.3340493519145984	-31.213909527426324	-0.33404935191456986	313.36326662821347	
3.106612859742366	167.21640915398973	7.300131881665056	-35.83907937397299	7.300131881665173	138.98169418888742	11.9884061954901	-35.83907937397304	11.98840619549013	295.09609922644097	
3.1551536856758404	127.81169839832619	10.165920338585181	-39.096561357275576	10.16592033858527	107.60184557936806	24.019352087207295	-39.09656135727563	24.01935208720733	276.5762097596562	
3.203694511609315	103.06495616428725	6.75106677511278	-41.348733073251566	6.7510667751128395	84.6253693664037	34.94739676931779	-41.34873307325162	34.94739676931784	265.38421299129965	
3.2522353375427895	93.95235743741812	1.4413389332487472	-43.15163582638209	1.441338933248768	69.93409859027611	42.67443916162411	-43.15163582638213	42.67443916162418	263.1004621208014	
3.3007761634762636	94.87385383613599	-1.4425853134703468	-46.047108192922565	-1.4425853134703575	64.9469253289111	42.781563269995374	-46.04710819292258	42.78156326999546	268.58379292333973	
3.349316989409738	97.79232266784643	-0.6597975281857202	-51.98955614094748	-0.6597975281857522	73.44679086313597	32.55662492191214	-51.9895561409475	32.55662492191223	278.96091688846354	
3.3978578153432126	99.67479686384516	2.5812075202420406	-61.95554707102386	2.5812075202419944	95.90345013325864	15.259961576006024	-61.95554707102387	15.25996157600611	287.6198399520004	
3.446398641276687	102.28786677091152	8.724196558169577	-75.18263392633492	8.724196558169528	124.00811135652607	-1.9855560995252501	-75.18263392633494	-1.985556099525196	284.3453151559111	
3.4949394672101617	103.6538115545981	20.737762280498107	-88.93518173676955	20.737762280498064	143.34090884410412	-14.158636994129882	-88.93518173676958	-14.158636994129859	260.6080949549048	
3.543480293143636	94.62553782521111	39.31281193534144	-98.33787174814424	39.312811935341415	141.9624582160035	-20.611984108350804	-98.33787174814425	-20.611984108350818	216.57040175198156	
3.5920211190771107	68.19124655079828	59.076553857887916	-97.37536771325092	59.076553857887895	117.58519820315625	-22.702124631470795	-97.37536771325094	-22.70212463147083	163.16966312175725	
3.640561945010585	29.9665405093174	71.94997525805186	-81.76927385351347	71.94997525805185	78.3103994579714	-21.502577133940164	-81.76927385351345	-21.502577133940214	116.3374630237459	
3.6891027709440594	-6.429270818751924	73.90592975733269	-52.1183976114402	73.90592975733266	35.99719375343081	-17.39247144991864	-52.11839761144019	-17.392471449918695	87.65792991977561	
3.737643596877534	-35.10838205186853	66.98714396967235	-14.985728806917972	66.98714396967232	-2.629141779322536	-10.340259052510088	-14.985728806917951	-10.34025905251014	78.66238282351273	
3.7861844228110084	-63.72209036980491	55.276580486445404	19.09466990617495	55.27658048644539	-38.113280135557034	-1.191200583392269	19.09466990617497	-1.1912005833923127	82.23045932548955	
3.834725248744483	-101.04289310342811	41.240393854956835	40.055218601947914	41.24039385495683	-72.23110825707049	6.338568534148498	40.055218601947956	6.33856853414846	89.34327224553462	
3.8832660746779575	-142.5360072642344	26.62982897271916	43.305544319164106	26.629828972719174	-102.91417769884403	6.525381503336062	43.305544319164134	6.5253815033360265	96.55184952556237	
3.931806900611432	-171.89561204189903	14.757785800821017	32.29610665420966	14.757785800821033	-125.18369553381618	-3.311126100043479	32.296106654209694	-3.31112610004351	108.57394346122565	
3.980347726544906	-176.20215865970056	9.552353755161555	15.879919360946667	9.552353755161558	-133.6808283380462	-18.74922364198803	15.879919360946696	-18.74922364198806	132.9707220287233	
4.028888552478381	-157.73557259956345	12.31912880541165	1.4545986474799617	12.319128805411646	-124.49411420457068	-30.5026475563813	1.4545986474799877	-30.502647556381323	171.3028872823313	
4.077429378411855	-130.75277054396096	20.389381306809927	-10.024314527084744	20.389381306809923	-99.06484676515433	-30.964151745596567	-10.024314527084723	-30.96415174559659	215.7607324071439	
4.12597020434533	-108.45896069029861	29.229791505765867	-21.9782707019724	29.22979150576588	-67.97521304657354	-18.757184666102127	-21.978270701972384	-18.757184666102134	254.4454948313089	
4.174511030278804	-94.51115176011247	34.9099588958846	-35.93647227948091	34.90995889588462	-47.5848306556766	1.6685176196150144	-35.936472279480896	1.6685176196150269	279.11582570772896	
4.223051856212279	-84.27300191556503	34.22536015595541	-48.81737757320454	34.22536015595544	-48.82334238163903	23.435127495666258	-48.81737757320454	23.435127495666293	288.2410772646243	
4.271592682145753	-68.96875634278808	25.324105490567018	-56.417172261552345	25.324105490567057	-66.78026756238312	40.72734869830981	-56.417172261552345	40.72734869830987	284.86867404520257	
4.320133508079228	-38.57878035686946	10.88466828420962	-57.81508529929201	10.88466828420967	-81.52349671384044	51.214560661493145	-57.81508529929202	51.2145606614932	273.4719743016501	
4.368674334012702	12.288468116258018	-1.7796184722245254	-55.47712346192293	-1.7796184722244615	-72.83784249307548	56.84858549676551	-55.47712346192293	56.84858549676558	258.36396305023345	
4.417215159946177	75.92410618267031	-7.158996591547947	-52.44169407183068	-7.158996591547871	-37.72654919755965	61.870375519678404	-52.441694071830675	61.870375519678454	242.9995432405264	
4.465755985879651	130.42639385314277	-7.062940689369226	-50.894178455470175	-7.062940689369151	6.685296330232796	68.31901589707846	-50.894178455470175	68.31901589707851	229.36707564619672	
4.514296811813125	152.44458453748734	-7.708742961158537	-52.35377290828689	-7.708742961158478	38.3279746365234	72.76255993795837	-52.3537729082869	72.76255993795846	218.52782143836743	
4.5628376377466	134.7717034960195	-12.461114464039174	-56.76744717292581	-12.46111446403914	47.00247759870705	68.51853763049661	-56.76744717292584	68.5185376304967	212.3787271499463	
4.611378463680074	92.46287603374016	-19.14959623138041	-61.15590756292934	-19.149596231380407	37.77158222674513	52.62316901281453	-61.155907562929386	52.6231690128146	213.9976688730806	
4.659919289613549	51.48842378819106	-24.23746983751929	-60.91753087905535	-24.237469837519296	23.19018685606894	30.88993693678983	-60.91753087905538	30.88993693678987	224.67274666288358	
4.708460115547023	30.52966310918706	-27.552991375843348	-53.183481624011584	-27.552991375843355	14.26696985025466	14.8776116255918	-53.18348162401159	14.877611625591811	240.36240556482738	
4.757000941480498	31.913380340565194	-30.70827052132143	-38.44270486866834	-30.708270521321417	16.192910983238782	12.607781930595293	-38.442704868668315	12.607781930595278	252.7247444599803	
4.805541767413972	47.19386869177817	-31.312561608123726	-19.36027753425648	-31.312561608123698	30.828996798323633	21.948710815999696	-19.360277534256408	21.948710815999668	255.5723352714624	
4.854082593347447	68.34719702471847	-23.35098396161743	0.9959622216397377	-23.350983961617374	60.81096741423971	32.663141332770785	0.9959622216398492	32.66314133277075	250.61220089495703	
4.902623419280921	91.69033957948908	-6.211607614416025	20.0136437730098	-6.211607614415968	107.6904550508594	33.84009451764783	20.01364377300994	33.840094517647806	245.78100023918392	
4.951164245214396	113.911817357501	10.783410032035576	35.66215445281655	10.783410032035633	166.50875235562245	19.914078698948508	35.662154452816694	19.914078698948508	247.16712886668694	
4.99970507114787	130.48586851284	17.121219877046702	46.404481255497274	17.121219877046755	226.8296700423375	-6.91557614226364	46.40448125549739	-6.915576142263613	252.55832016979593	
5.048245897081345	140.9944697942966	12.20749447681966	51.11032142571531	12.207494476819694	280.02280037057676	-37.37308531401827	51.110321425715384	-37.373085314018226	253.25457019695256	
