# Stress in units of bar (10^5 Pa)
# z	Sxx	Sxy	Sxz	Syx	Syy	Syz	Szx	Szy	Szz
0.0	-17.933751460491496	-96.47770262028617	-38.735150218577836	-96.4777026202852	159.43841812565876	46.596822821780826	-38.73515021857807	46.59682282178124	-323.73112825234915	
0.0523721640968285	-78.558251281819	-90.80419326796313	-48.47616604023759	-90.80419326796212	47.93799543598402	29.255194388057987	-48.476166040237835	29.25519438805846	-302.71543161328094	
0.104744328193657	-149.02751439143142	-96.21595674637621	-58.79551206695994	-96.21595674637513	-65.84042251043817	12.049505769142208	-58.79551206696017	12.049505769142709	-274.94959696980277	
0.15711649229048552	-221.44054837451696	-113.15692733680194	-67.47928427350206	-113.15692733680069	-173.37945754099212	-4.25471418798502	-67.47928427350226	-4.254714187984511	-240.7423799894438	
0.209488656387314	-287.05171533551453	-142.0902958029415	-72.72146178949797	-142.0902958029401	-265.788102265393	-18.94050602760405	-72.72146178949811	-18.94050602760357	-201.0370752438785	
0.2618608204841425	-338.612817829488	-183.25185132678672	-73.53892935391585	-183.25185132678516	-335.229153640916	-31.438210191633182	-73.53892935391593	-31.43821019163274	-157.6791032804187	
0.31423298458097104	-372.1941465997609	-236.06364139048566	-69.95394412163031	-236.06364139048398	-376.775373593475	-41.35558870950898	-69.9539441216303	-41.35558870950862	-113.43722197705111	
0.36660514867779953	-387.9442025344797	-298.53201889068805	-62.82470342649168	-298.5320188906863	-389.4999095672373	-48.44235477238989	-62.82470342649158	-48.44235477238966	-71.66419855631705	
0.418977312774628	-389.55462307831124	-367.01184560086625	-53.43607372897972	-367.01184560086443	-376.2965601480165	-52.47563506926993	-53.43607372897948	-52.47563506926982	-35.622968933317225	
0.4713494768714565	-382.61241501243387	-436.1522982183245	-42.95796802338412	-436.1522982183227	-343.6717559905159	-53.126098166919725	-42.95796802338374	-53.12609816691976	-7.731230390405663	
0.523721640968285	-372.8684415109434	-499.5390744506594	-32.02212419104684	-499.5390744506578	-299.69987113674136	-49.8692831230064	-32.022124191046295	-49.86928312300657	11.01014443221478	
0.5760938050651135	-364.21844562225584	-550.7472731941261	-20.573564904913415	-550.7472731941245	-252.83092871221	-42.0127761343602	-20.5735649049127	-42.01277613436048	21.196487112935372	
0.6284659691619421	-358.0734675770872	-584.4464925334199	-7.9548116894615895	-584.4464925334186	-210.03111790942143	-28.873778057795924	-7.954811689460722	-28.873778057796297	24.671072886083234	
0.6808381332587705	-353.2301813127828	-597.5883454463766	6.765924275011596	-597.5883454463755	-175.96214004125477	-10.092410158229278	6.765924275012585	-10.092410158229704	23.789214196569098	
0.7332102973555991	-346.83064706343225	-590.1289633838722	24.457948693917235	-590.1289633838713	-152.85138363618128	14.034276691385188	24.457948693918276	14.034276691384704	20.669974709498877	
0.7855824614524275	-335.4481118116342	-564.834113728804	45.689385311954574	-564.8341137288035	-140.6179333992482	42.30162319506594	45.6893853119556	42.30162319506542	16.636287864930956	
0.837954625549256	-316.0738939838691	-526.8645362859322	70.66379651232118	-526.864536285932	-137.9311727926543	72.57472630773094	70.6637965123221	72.57472630773039	12.159528898807672	
0.8903267896460846	-286.73810113523587	-482.38270799579624	99.34217627308726	-482.38270799579635	-142.87996598203165	101.985353341659	99.34217627308796	101.98535334165842	7.163107145626448	
0.942698953742913	-246.60022883218107	-437.3792645815483	131.5854813650138	-437.3792645815488	-153.83130586357578	127.28244693993265	131.58548136501423	127.28244693993206	1.609125511527182	
0.9950711178397416	-195.70163386600277	-396.37386224200696	167.20429511004423	-396.3738622420079	-169.4546169513854	145.36423075737193	167.20429511004434	145.36423075737127	-4.019618834665635	
1.04744328193657	-134.55335177666748	-362.03582213218385	205.81118717024435	-362.035822132185	-189.0675807470992	153.76791856620483	205.81118717024412	153.76791856620417	-8.602811896052756	
1.0998154460333986	-63.83212577547414	-335.0480653338268	246.4567710463366	-335.0480653338283	-211.69420734110875	151.10983260493538	246.4567710463361	151.10983260493478	-10.554575093800203	
1.152187610130227	15.492910301366052	-314.9325054532999	287.2719985378924	-314.9325054533017	-235.8027609886052	137.28905072003127	287.2719985378916	137.28905072003067	-8.300000498895393	
1.2045597742270555	102.32881975832188	-300.71054384415027	325.22143276989533	-300.7105438441523	-258.2884209275989	113.46140968042495	325.2214327698943	113.46140968042435	-0.7579141313072535	
1.2569319383238842	195.1957024357431	-291.7412130235457	356.2822772348062	-291.74121302354797	-274.34001220450966	81.84372326302986	356.2822772348051	81.84372326302929	12.223936988344581	
1.3093041024207126	292.17301396510527	-287.87771702325546	376.02236640792023	-287.87771702325773	-278.2557373243896	45.3530461801616	376.0223664079191	45.353046180161044	29.71464262308232	
1.361676266517541	391.0423955131929	-289.2814961830197	380.62805128482967	-289.2814961830221	-264.6592083765015	7.280819196697175	380.62805128482864	7.280819196696649	49.72184017973318	
1.4140484306143695	488.7492290690423	-295.482432042963	367.95658831928506	-295.48243204296534	-230.351720270588	-29.025636217785177	367.95658831928426	-29.025636217785703	69.48651838460742	
1.4664205947111981	581.5521590601462	-304.76862271892605	338.3028915424362	-304.76862271892827	-175.89307045341522	-60.43595764307386	338.30289154243553	-60.43595764307438	85.92362573430215	
1.5187927588080266	665.2687583426625	-313.86638525461154	294.62373798899375	-313.8663852546136	-105.17424578108715	-84.37987281235904	294.62373798899324	-84.37987281235955	96.33152660450568	
1.571164922904855	735.6677425163934	-318.3612522692293	242.07734750436873	-318.3612522692312	-24.40738293423078	-99.15651676448464	242.07734750436833	-99.15651676448513	99.20783068291391	
1.6235370870016836	789.693595227802	-313.7209215461601	186.9955361895335	-313.7209215461619	60.48451843394083	-104.25075455268977	186.99553618953314	-104.25075455269024	95.01767029194542	
1.675909251098512	826.2810125687192	-296.3912709557786	135.65912015597584	-296.39127095578016	146.2718856688489	-100.46209249365195	135.65912015597556	-100.46209249365242	86.59881962984548	
1.7282814151953405	846.7157229574037	-264.79152116829647	93.1490276604398	-264.7915211682978	233.45911736036248	-89.77584016111358	93.1490276604395	-89.775840161114	78.93855133726925	
1.7806535792921692	854.6381564207189	-219.9427458012554	62.659781608392535	-219.94274580125642	325.33715806619864	-74.77320929666722	62.65978160839221	-74.77320929666762	78.19313228252062	
1.8330257433889976	854.7739260533843	-165.0197847393888	45.2561913163046	-165.01978473938965	425.63668746203496	-57.874992696311665	45.25619131630423	-57.87499269631205	90.06455551870408	
1.885397907485826	851.3231154422888	-104.62141102735754	40.02274744768134	-104.62141102735819	535.5923761563624	-40.57604261474599	40.02274744768093	-40.57604261474631	117.95284739770835	
1.9377700715826547	846.9145579988526	-43.891960927417045	44.45061221806824	-43.89196092741753	652.1874884704464	-23.00420221725726	44.45061221806785	-23.00420221725755	161.55508794653977	
1.9901422356794831	841.8570683113455	12.660131088890386	54.843838900360886	12.660131088890054	767.7561948327766	-4.038982339970119	54.84383890036054	-4.0389823399703815	216.44591599875488	
2.0425143997763118	834.8893069027384	61.772507922108765	66.7773997948151	61.772507922108545	871.7041214456403	18.092749513706234	66.77739979481481	18.092749513705982	274.81367256458805	
2.09488656387314	824.2927807276756	101.7836218899044	75.5001130921932	101.7836218899042	953.1273113295338	44.973836907623976	75.500113092193	44.97383690762376	327.2825834583738	
2.1472587279699686	808.9481489899676	132.77449325799853	76.43077990825759	132.77449325799824	1003.0428993251528	77.16857283852305	76.4307799082575	77.1685728385228	365.20465262955076	
2.1996308920667973	789.1968989731863	156.01682060579074	65.74832960487035	156.0168206057906	1016.780960548976	113.75072735499252	65.7483296048704	113.75072735499229	382.943468845387	
2.2520030561636255	766.4457349323008	173.49349192677155	40.99622991915444	173.49349192677133	993.9453196525747	152.25851249401578	40.99622991915459	152.2585124940155	379.33214128836005	
2.304375220260454	742.4104732852225	187.0370198245529	1.6661840000408858	187.03701982455266	938.4575275631596	189.06934570863476	1.6661840000411274	189.06934570863444	357.89438099933255	
2.356747384357283	718.4633927257802	197.6055201934016	-50.521105369605955	197.60552019340145	857.006352627864	220.067580052976	-50.52110536960563	220.06758005297573	325.83472674758616	
2.409119548454111	694.9757845306337	205.0425268388834	-111.7456745930406	205.04252683888322	758.0851634129735	241.44530879194687	-111.74567459304023	241.4453087919465	292.00878629952064	
2.4614917125509397	671.4833361913484	207.95020741155753	-176.59557191142966	207.95020741155736	650.6726414907558	250.4799920330929	-176.59557191142923	250.47999203309263	264.3941392382237	
2.5138638766477683	646.9438247831534	204.24199452203135	-238.86880309417103	204.24199452203123	543.0234235530853	246.10643915040762	-238.86880309417057	246.1064391504073	248.02353621163883	
2.5662360407445965	620.1060167732562	191.96423908394362	-292.4071674378727	191.96423908394354	441.9732143475616	229.16473168561862	-292.4071674378722	229.16473168561834	243.89969991767038	
2.618608204841425	589.6552832588726	170.09798069778688	-331.81639068080995	170.09798069778677	351.8541915177492	202.3063514777462	-331.8163906808095	202.30635147774595	249.27988298152232	
2.6709803689382534	554.3033451031309	139.38439543767063	-352.9360135864689	139.38439543767058	274.3314112095106	169.49253553827074	-352.9360135864685	169.49253553827052	259.07700515431213	
2.723352533035082	512.6061315822578	102.43607298535251	-353.14072556103844	102.43607298535245	208.21621805251152	135.20684661339618	-353.14072556103804	135.206846613396	267.8984848532995	
2.7757246971319107	463.4312438542633	63.551953809802086	-331.5648260649803	63.551953809802036	150.37371603913107	103.60030628866973	-331.5648260649799	103.60030628866964	271.8656928884758	
2.828096861228739	406.2962242811661	27.72680547066028	-289.3202387632624	27.726805470660175	96.68504986366179	77.67192299486086	-289.3202387632621	77.67192299486081	269.4733507707011	
2.8804690253255676	342.1760207460903	-0.25190605219805207	-229.71115955921482	-0.25190605219816575	43.84442181814991	58.84603487474445	-229.7111595592146	58.846034874744426	261.49262970295916	
2.9328411894223962	273.52220348397674	-17.128211141379268	-158.20330136600472	-17.12821114137941	-9.626695469093878	46.956092473904675	-158.2033013660045	46.956092473904704	250.06021540084575	
2.9852133535192245	204.15749001325673	-21.647422950838937	-82.02818156933954	-21.647422950839086	-62.46802471669385	40.59923177425906	-82.02818156933942	40.5992317742591	237.6537030645119	
3.037585517616053	138.4190018037446	-14.619704878822409	-9.308050026531554	-14.61970487882254	-110.9246163336379	37.83978622057022	-9.308050026531486	37.83978622057029	226.3471291344289	
3.0899576817128818	79.7348280260428	1.7218022065553598	52.17006595690783	1.7218022065552105	-150.0584701751929	36.905158558535376	52.17006595690789	36.90515855853545	217.61339077026443	
3.14232984580971	30.106818797626673	24.40547140471341	96.28142966261095	24.405471404713268	-175.29031414796827	36.7719293634313	96.28142966261093	36.77192936343137	212.5983105762354	
3.1947020099065386	-10.66080675183978	50.73065801318806	119.53891582639588	50.73065801318789	-184.07456916848355	37.392009395307284	119.53891582639588	37.39200939530738	212.52365266080318	
3.2470741740033673	-44.73314033842628	78.80472011440466	121.54610081820846	78.80472011440449	-177.25319601197168	39.533308108460545	121.54610081820844	39.53330810846064	218.87414806860883	
3.2994463381001955	-75.13236623104993	107.47417557689094	104.76114654286431	107.47417557689076	-158.8177470047438	44.24014203492411	104.76114654286432	44.2401420349242	233.2672247918571	
3.351818502197024	-104.77714794682458	136.0989885930797	73.85057220076813	136.0989885930795	-135.05530392169499	52.226190346012864	73.85057220076814	52.22619034601293	257.05949250682187	
3.404190666293853	-134.7745686128821	163.86770162231986	34.69393365026373	163.86770162231963	-112.52601531769788	63.35340225717407	34.69393365026376	63.353402257174125	290.8288108000919	
3.456562830390681	-163.90537856746147	189.3602553692105	-6.592307043034718	189.36025536921025	-96.12331104544492	76.37687617948515	-6.592307043034708	76.37687617948517	334.08267878629863	
3.5089349944875097	-188.48408713049943	210.42001016094432	-44.604670255631156	210.4200101609441	-87.19690370180516	88.94008397847466	-44.604670255631135	88.94008397847469	385.16237862407877	
3.5613071585843383	-203.13352119756598	224.3159266843544	-75.39873817157465	224.3159266843541	-83.28796111055014	97.91733735836499	-75.39873817157462	97.91733735836502	441.5183279785133	
3.6136793226811665	-202.52500063371104	228.6831725452493	-96.93560159382471	228.68317254524905	-78.88540501801916	99.91801866631852	-96.93560159382469	99.91801866631852	500.0827504102134	
3.666051486777995	-183.5349440059684	222.19643565241842	-109.12354581947963	222.19643565241822	-67.74190767631659	91.85880118586398	-109.12354581947959	91.85880118586398	557.680914268209	
3.718423650874824	-146.35470931517935	205.267321134327	-113.43419871363542	205.2673211343268	-44.862628728909215	71.62356532711851	-113.4341987136354	71.62356532711851	611.4032905885712	
3.770795814971652	-95.366001076345	180.11407763266294	-112.13061001895177	180.11407763266266	-9.126852187733899	38.532202442229355	-112.13061001895176	38.53220244222938	658.9207258891381	
3.8231679790684807	-37.7392800743242	150.22456550668494	-107.279195212645	150.22456550668474	36.12729827285423	-6.368955192793621	-107.27919521264499	-6.368955192793564	698.6006860790861	
3.8755401431653094	18.127787296723174	119.38810544471873	-99.93792757018711	119.38810544471859	83.92105165138345	-60.232674904789434	-99.93792757018709	-60.23267490478938	729.6245368943767	
3.9279123072621376	65.08465548577117	90.71928781231047	-89.81613669702142	90.71928781231037	125.29964684396683	-118.80601767187562	-89.81613669702136	-118.80601767187558	751.9326273435668	
3.9802844713589662	98.64561645210827	66.28180113717067	-75.47580464243913	66.28180113717059	152.4138523938372	-177.1096249503099	-75.47580464243907	-177.1096249503098	766.0411669365969	
4.032656635455795	117.31802918914379	46.958160797851704	-55.08984174214733	46.95816079785165	160.70372097415128	-230.300953190192	-55.08984174214726	-230.3009531901919	772.72984142277	
4.0850287995526235	121.94083443907098	33.0675841833166	-27.35852875079292	33.06758418331649	150.25093477665285	-274.5398532562843	-27.358528750792836	-274.5398532562842	772.562822625982	
4.137400963649451	114.67365480827107	24.88186078560611	7.741098827586888	24.881860785606094	125.77418226700172	-307.50236553252154	7.741098827586988	-307.5023655325214	765.4969350354174	
4.18977312774628	97.7425767409746	22.861564045608525	48.586563536985075	22.86156404560848	95.2038979847348	-328.5462095801317	48.586563536985196	-328.54620958013163	750.7733381936132	
4.242145291843109	73.5555048618693	27.42790184513315	92.12408061147575	27.42790184513315	67.81514073705576	-338.3781022679657	92.12408061147586	-338.3781022679657	727.2672281500332	
4.294517455939937	45.09121845429621	38.35913957289645	134.4752552072479	38.35913957289644	51.75663989323705	-338.5883360508545	134.475255207248	-338.5883360508544	694.3437786522861	
4.346889620036766	15.722530822873992	54.241237400522955	171.79606246602214	54.241237400523	52.378192298510996	-331.15336997208846	171.7960624660223	-331.15336997208846	652.9907081407641	
4.399261784133595	-10.295951221339564	72.15183945903853	200.98324446375688	72.1518394590386	71.51849591365475	-318.05538490990074	200.98324446375702	-318.0553849099008	606.6510065028983	
4.451633948230422	-29.391773801677644	88.11586421158302	220.07185932351422	88.11586421158307	107.31800437969721	-301.1606488329917	220.07185932351433	-301.1606488329917	561.1976523965243	
4.504006112327251	-39.22910229986381	97.96871002927222	228.20078079313967	97.96871002927233	155.26018270711893	-282.27820164705065	228.2007807931398	-282.27820164705076	523.8684756735186	
4.55637827642408	-39.91995743823438	98.03037026785428	225.31277505297055	98.0303702678544	208.98046900865592	-263.1379893237204	225.3127750529707	-263.1379893237206	501.24434857076017	
4.608750440520908	-33.52685172542289	86.2478511401892	211.87700854117296	86.24785114018934	261.9302414916084	-245.28971183302247	211.87700854117315	-245.28971183302275	496.9163852783448	
4.661122604617737	-23.242722727472398	62.55489995648845	188.75862319338543	62.554899956488555	307.91044767294574	-229.81378875535745	188.75862319338555	-229.8137887553578	509.82433157103117	
4.713494768714566	-11.884623830120859	28.936607540299093	157.34401435107705	28.936607540299207	342.04339060449763	-216.99155309239018	157.3440143510772	-216.99155309239057	533.8162267254941	
4.765866932811393	-1.2734026033162138	-11.185831451896632	119.91112382125543	-11.185831451896519	361.0649911872489	-206.085189537524	119.91112382125561	-206.08518953752446	558.8302398919378	
4.818239096908222	8.45389707501252	-53.36202892122586	79.7890957876528	-53.36202892122573	363.829020482284	-195.43094894034107	79.78909578765297	-195.43094894034164	573.3824572271895	
4.870611261005051	17.488008900552273	-93.25904752423634	41.1260934473746	-93.25904752423621	351.37488359257	-182.81310139593637	41.12609344737477	-182.813101395937	567.4401770642562	
4.922983425101879	26.141816609675914	-127.04750461051079	8.1314113523675	-127.04750461051061	327.2340269801051	-165.97624685163387	8.131411352367635	-165.97624685163464	534.9625999145254	
4.975355589198708	33.9109044266913	-152.0938679060016	-15.992505982114935	-152.0938679060014	297.12742145290355	-143.02034990501627	-15.992505982114821	-143.0203499050171	475.33279677941835	
5.027727753295537	39.66774321459317	-167.2315076437348	-29.972812947407753	-167.23150764373452	267.99930331312794	-112.5596191431774	-29.972812947407625	-112.55961914317828	393.42287611531094	
5.080099917392364	42.43555086968186	-172.92239905520216	-34.89543441033224	-172.92239905520182	246.12058221050228	-73.75917447811317	-34.895434410332136	-73.75917447811415	298.4144056319447	
5.132472081489193	42.22645181337708	-171.14339465759446	-33.75548568130528	-171.143394657594	235.20388144922265	-26.265050801921397	-33.755485681305174	-26.265050801922442	201.8418984141087	
5.184844245586022	40.5269224632483	-165.24136934323198	-30.356998628870254	-165.24136934323133	234.95984195953014	29.773133494156134	-30.3569986288702	29.773133494155022	115.21805099620286	
5.23721640968285	40.020976557208826	-159.44168651100279	-27.89604643454564	-159.44168651100208	240.97517941226982	93.48977490956848	-27.896046434545553	93.48977490956733	47.9190844143446	
5.289588573779679	43.745070662043304	-157.94900205781306	-27.828086138528825	-157.9490020578122	246.12616569167088	162.98918869767567	-27.828086138528768	162.98918869767448	5.524890040105483	
5.341960737876507	53.803106822429754	-164.04844959571642	-29.459869854046048	-164.04844959571557	243.13311015369703	235.13146333110777	-29.459869854045994	235.13146333110663	-11.000989046170176	
5.3943329019733355	70.50565992083118	-178.95269717995635	-30.423150675180317	-178.9526971799555	227.5448724268639	305.72680210582365	-30.42315067518024	305.7268021058225	-5.2696356522177865	
5.446705066070164	91.80558611650515	-201.2746162061772	-27.72442353590602	-201.27461620617635	199.34641978438677	370.07708335455226	-27.724423535905927	370.0770833545512	15.582023221740966	
