# Stress in units of bar (10^5 Pa)
# z	Sxx	Sxy	Sxz	Syx	Syy	Syz	Szx	Szy	Szz
0.0	-90.95796633209557	147.9956578121837	-70.96828113942976	147.99565781218251	213.22789868167368	-12.137465990828847	-70.96828113942988	-12.137465990828037	230.75132728476257	
0.05534243461323623	-80.36939835112634	132.41479463976063	-47.19158430580581	132.41479463975918	259.8399888782933	-6.230445877900564	-47.191584305805904	-6.230445877900051	199.9837191987113	
0.11068486922647246	-97.21859264345441	93.89999132008492	-9.572119573755014	93.89999132008356	303.72197902090556	13.399781444773105	-9.57211957375517	13.399781444773268	148.95605978896123	
0.16602730383970868	-135.21151765217948	33.15990441868437	23.592747503592335	33.159904418683205	326.53913025303046	39.68230212560148	23.5927475035921	39.682302125601375	82.31402868850805	
0.22136973845294491	-175.80713329455625	-33.356900240870615	38.71509176722778	-33.35690024087152	304.3571699873651	60.40629178724402	38.715091767227534	60.40629178724382	7.394924429352427	
0.2767121730661811	-206.61182908967442	-78.94445019889751	34.291596476375574	-78.94445019889827	225.3446903816664	65.72009085940101	34.29159647637535	65.72009085940093	-67.21777348472415	
0.33205460767941736	-229.02977104989174	-84.0079466822589	22.330256269532605	-84.00794668225963	105.68407723516393	53.39952164559311	22.33025626953238	53.39952164559326	-133.7527232582048	
0.3873970422926536	-247.04109297030786	-50.23583688573737	19.77254654432086	-50.23583688573814	-17.47599584438987	29.17973881841678	19.77254654432063	29.17973881841724	-186.4493560937127	
0.44273947690588983	-254.83514032511337	1.826728207216405	35.93250851943628	1.8267282072156092	-108.838774878158	2.862075772225624	35.93250851943605	2.862075772226362	-221.25726344476303	
0.49808191151912606	-240.6401927916582	47.910947565693974	67.2263263380492	47.910947565693135	-150.8457325040991	-17.649299823084156	67.22632633804898	-17.64929982308322	-235.023121896153	
0.5534243461323622	-197.68440374357652	74.22735599025333	101.9646471463404	74.22735599025265	-143.84620327318757	-30.55372105977065	101.9646471463401	-30.553721059769618	-225.36614772655383	
0.6087667807455985	-125.55438698455336	81.96913745247377	128.92637461234824	81.96913745247323	-101.0917754204377	-39.03328777894929	128.9263746123478	-39.03328777894825	-191.53241905363979	
0.6641092153588347	-28.95116316050712	82.25900120195617	143.89893401379803	82.25900120195593	-45.73247269445027	-45.85782620602252	143.89893401379726	-45.85782620602153	-136.24643975606006	
0.719451649972071	75.0021382781	84.26713225533985	150.6827631009529	84.26713225533996	-3.5808767696193797	-49.59519890563595	150.68276310095197	-49.59519890563496	-68.25307675312257	
0.7747940845853072	153.9221596659248	87.03938796057183	154.30894720234707	87.03938796057231	11.57908814765905	-46.342455531261564	154.30894720234616	-46.34245553126046	-2.9197063541555934	
0.8301365191985435	180.2223608333006	84.41236149068806	151.97870397629407	84.41236149068871	7.456336001868323	-33.861006246097176	151.97870397629333	-33.86100624609587	43.53858334484579	
0.8854789538117797	156.56449164384605	74.49334801341774	134.04194676053135	74.4933480134183	1.1087938530778558	-12.402654883341743	134.04194676053086	-12.402654883340256	65.19999416999434	
0.9408213884250158	113.24119962290315	59.49275491894483	96.89057801139386	59.49275491894521	-4.267103705976396	17.620068407279522	96.89057801139344	17.620068407280975	72.62536922589553	
0.9961638230382521	77.28582716683508	39.71066435846179	52.19146310362285	39.71066435846205	-20.708322903220136	56.037949360246756	52.19146310362236	56.03794936024801	85.04001849638948	
1.0515062576514884	48.43048540231244	15.94031427105029	19.53950874719145	15.940314271050667	-50.911677020720724	100.49554869694416	19.539508747190823	100.49554869694506	114.38896554025685	
1.1068486922647245	5.337626909218187	-3.2353851210323015	9.863258617477973	-3.235385121031584	-78.0347504440488	144.8294674023891	9.863258617477298	144.8294674023897	157.20116230969472	
1.1621911268779608	-68.52929757513049	-3.768562579723806	16.939829563853174	-3.7685625797226407	-85.94468679259403	179.48134575609802	16.939829563852633	179.48134575609822	201.22461623717714	
1.217533561491197	-165.34303838682615	21.79954720255253	24.241919312785107	21.799547202554038	-73.63888034057001	194.2087105466651	24.24191931278482	194.20871054666486	237.5169678237708	
1.2728759961044334	-256.87855898246505	64.75220843695408	18.90375754273872	64.75220843695578	-46.63687608659487	185.00196017464205	18.90375754273867	185.00196017464148	264.96118072085505	
1.3282184307176694	-314.6081902731551	103.08974919599206	0.3022314247072213	103.08974919599385	-11.673987805176907	161.35879584035655	0.3022314247072737	161.3587958403558	285.15413564263787	
1.3835608653309057	-325.47727777564074	115.62602826431157	-21.800537669021935	115.62602826431319	13.967843562003829	143.46688846975368	-21.800537669021907	143.46688846975303	295.8720341944147	
1.438903299944142	-290.61744839853554	96.66737871699891	-35.34857286963968	96.66737871700018	5.812042635514153	148.3774091020082	-35.348572869639675	148.37740910200773	289.9914245255802	
1.494245734557378	-217.34928508031575	59.94008083479518	-33.342031212162624	59.94008083479589	-42.27925878668955	178.52995018028753	-33.34203121216249	178.52995018028724	259.9431791467252	
1.5495881691706144	-114.58676954687996	27.060703771297824	-16.269821401369843	27.06070377129791	-96.7941008473575	221.62025092850163	-16.269821401369537	221.62025092850138	204.62544672403607	
1.6049306037838507	7.923211876164999	9.239531706998239	10.422793055644167	9.23953170699783	-97.93898476622091	257.221192914963	10.422793055644584	257.22119291496284	134.50653564892093	
1.660273038397087	134.18808652521358	0.6467626087685687	40.443789189910454	0.6467626087679115	-8.648301692662471	264.5774896816432	40.44378918991086	264.5774896816433	68.79394665750225	
1.715615473010323	239.5875529731996	-9.33269773570971	67.59441171728037	-9.332697735710436	146.70291435998524	231.27061764301894	67.59441171728075	231.27061764301922	23.250289020779427	
1.7709579076235593	306.1828149551601	-20.29636364120983	83.63255652981196	-20.296363641210462	301.55652723034103	159.3437128215759	83.6325565298124	159.34371282157628	-1.794098327949813	
1.8263003422367956	343.92321157516176	-21.216919585844863	80.27898404974563	-21.216919585845346	409.763029523857	61.88507543790921	80.27898404974624	61.88507543790951	-20.190285996036664	
1.8816427768500317	387.41958345681894	-4.77534761196091	58.76825582588314	-4.775347611961223	481.46556505275316	-46.968576263451524	58.76825582588392	-46.96857626345134	-43.224714318121826	
1.936985211463268	468.01988207352076	23.62119700747094	36.04365355815108	23.62119700747084	558.1273845757325	-154.53887678796144	36.04365355815192	-154.53887678796133	-61.71843207413208	
1.9923276460765043	581.0036433548871	47.45276732343767	35.075760441864084	47.45276732343774	662.9216923068632	-242.80094284570936	35.07576044186485	-242.80094284570916	-48.465968025451104	
2.0476700806897403	675.0970066558091	45.9149781231059	67.56673393472654	45.91497812310618	776.6447987028779	-291.2162671916567	67.56673393472715	-291.21626719165647	15.099864490767658	
2.103012515302977	693.8453563271269	9.598892483252882	129.3913813082249	9.598892483253252	855.4225681424206	-295.8133681822102	129.39138130822542	-295.81336818220984	114.9696266015466	
2.158354949916213	635.3213038961186	-38.90117114618201	209.929094797295	-38.90117114618165	869.2784351408771	-278.27054238644064	209.9290947972954	-278.2705423864404	212.32058035985344	
2.213697384529449	546.2942834742402	-54.145190701353144	296.9319056883696	-54.1451907013529	824.6319831202732	-264.5884079200347	296.9319056883699	-264.5884079200345	274.73543279152045	
2.2690398191426855	454.49431010768063	-16.209662543248925	372.4921453752771	-16.209662543248854	752.6568012393468	-256.9892558835271	372.4921453752774	-256.9892558835271	296.77841144471626	
2.3243822537559216	343.3187093211724	40.96419872262382	415.25337533757727	40.964198722623806	682.283519514237	-235.94378456828304	415.2533753375774	-235.9437845682831	294.67622047443956	
2.3797246883691576	199.09227390700443	65.8476553438359	411.3886607359433	65.8476553438359	623.4655299463172	-189.4081451944295	411.3886607359434	-189.40814519442966	290.94681296366304	
2.435067122982394	50.38449962894239	44.56219733031385	358.4966982468232	44.56219733031391	569.3092384500443	-131.30197320997488	358.49669824682326	-131.30197320997513	304.8928213313162	
2.49040955759563	-54.680997317945035	7.857598370536838	259.38203473154556	7.857598370536973	506.028947586591	-87.58523333562474	259.3820347315457	-87.585233335625	345.32071218986374	
2.5457519922088667	-92.66268982979801	-6.30359385030939	122.15459229715162	-6.303593850309177	427.24235196441316	-69.93508538502448	122.15459229715175	-69.93508538502469	401.87569125939615	
2.601094426822103	-74.51640086122174	16.10722438360954	-29.704533487708716	16.107224383609772	344.2233496864974	-68.99244726849602	-29.704533487708538	-68.99244726849616	448.5202766404035	
2.656436861435339	-23.561684428899838	60.8911088952593	-157.62520542434265	60.89110889525951	270.1392861180324	-70.6226795651195	-157.62520542434243	-70.62267956511957	465.9608395465717	
2.7117792960485754	41.55260572072499	96.86478158934412	-228.8691249888455	96.86478158934428	194.12552818908273	-70.12506608991427	-228.86912498884527	-70.1250660899143	460.4763136316659	
2.7671217306618114	108.89703732474615	96.90600894537721	-236.6357308681474	96.90600894537725	91.69293809093685	-67.6667963655546	-236.6357308681472	-67.66679636555462	454.6158818161587	
2.8224641652750475	178.98331868913863	59.65470509750339	-197.72132003767882	59.654705097503346	-32.75042245069163	-58.28881919696349	-197.72132003767865	-58.28881919696353	459.8215810998991	
2.877806599888284	267.40610193008024	7.332250162059321	-135.7988963572002	7.332250162059221	-133.78391692311016	-35.838384720406935	-135.79889635720005	-35.83838472040703	461.4300235722518	
2.93314903450152	383.88994968322055	-41.62555011680179	-69.94447978057802	-41.625550116801854	-167.30308740865354	-5.32134648073472	-69.94447978057791	-5.321346480734899	430.0518405239012	
2.988491469114756	505.3532837364596	-87.89857352124548	-12.856785392320443	-87.89857352124554	-132.79162609243298	16.855127614818596	-12.856785392320278	16.855127614818333	348.2499722914033	
3.0438339037279927	585.1005457378499	-132.39139277397064	28.223680061965126	-132.3913927739706	-61.63808830495641	18.184628678276617	28.22368006196534	18.18462867827632	228.46901025341225	
3.0991763383412287	592.8863545871191	-153.57887555113837	51.76211703910671	-153.57887555113825	19.680641595791002	2.760624777105008	51.76211703910694	2.760624777104699	103.8025629426632	
3.154518772954465	534.9382669736024	-120.72398270479485	62.973556207346384	-120.72398270479465	94.3007822173746	-14.059292986106836	62.97355620734661	-14.05929298610711	1.3430580860385324	
3.2098612075677013	434.0125955262742	-32.78335773715198	72.7492085224541	-32.78335773715174	136.13369443943105	-23.30243379410224	72.74920852245425	-23.302433794102463	-70.23262903136663	
3.2652036421809374	307.5517129665518	66.21178429187012	90.44736196527457	66.21178429187036	119.90036055783426	-31.39189246274747	90.4473619652747	-31.39189246274764	-107.09509675515633	
3.320546076794174	172.31257393994932	118.96205612730166	114.19952961697946	118.96205612730179	52.58535377579085	-48.884889181839256	114.19952961697956	-48.8848891818394	-97.8204135005773	
3.37588851140741	51.183121006029616	99.75885936585837	130.44444189276757	99.7588593658584	-32.027070108581256	-73.17583647980254	130.44444189276766	-73.17583647980265	-35.577375468285354	
3.431230946020646	-38.533139798353886	26.440712506263708	125.44939508843385	26.44071250626365	-110.32141527077437	-88.52766689130691	125.4493950884339	-88.52766689130706	64.41591433866114	
3.4865733806338826	-93.62762361320463	-63.93580673383505	96.7141318973635	-63.93580673383516	-176.50458981367737	-84.22561282847255	96.71413189736354	-84.22561282847266	172.61833497569924	
3.5419158152471186	-120.69841022415312	-141.0084183976469	54.2872414379154	-141.00841839764695	-222.5011880416247	-67.6708025457261	54.28724143791543	-67.67080254572616	269.97852569281827	
3.5972582498603547	-136.6295268201975	-186.3557279382868	14.040491482135915	-186.3557279382868	-243.67318443811962	-56.69465612785061	14.040491482135932	-56.69465612785057	358.3983593987949	
3.652600684473591	-164.52011656119566	-191.54334477861744	-10.869206970572268	-191.54334477861735	-259.0466503225631	-61.68180014840689	-10.869206970572247	-61.681800148406786	448.6009014071896	
3.7079431190868273	-204.53828562466998	-161.25228753142747	-15.979012016967976	-161.25228753142738	-289.13597379631284	-77.60939364056095	-15.979012016967943	-77.60939364056078	542.3575842443315	
3.7632855537000633	-213.19455079636623	-111.42934900757903	-6.120002690739991	-111.42934900757899	-312.237160528094	-91.06418272827705	-6.120002690739949	-91.06418272827688	624.7394595700594	
3.8186279883133	-140.7136597038665	-57.5820738765751	8.57504873709457	-57.58207387657507	-280.3626042925199	-91.72272928387433	8.575048737094608	-91.7227292838742	671.0498644424549	
3.873970422926536	7.633602319829389	-9.171883699620082	18.365692544841064	-9.171883699620054	-185.7309915143253	-78.42872641311078	18.365692544841096	-78.42872641311071	662.6032551710696	
3.9293128575397724	170.1634641577748	25.000432910821868	20.672666511831086	25.00043291082184	-79.24569463772221	-58.854542862237885	20.672666511831107	-58.85454286223786	597.2672628823798	
3.9846552921530085	287.5756747882003	36.30261717849216	25.149859856014565	36.30261717849207	-15.144878279541338	-44.4220440755794	25.149859856014572	-44.422044075579414	487.3471352229585	
4.039997726766245	340.7341334014161	24.891174394734115	48.59464030606275	24.891174394733987	-1.953268818492333	-41.60496497555866	48.59464030606276	-41.6049649755587	352.461054811042	
4.095340161379481	335.7183484351697	1.044339684503612	97.94235968242006	1.044339684503484	-15.207698360398815	-46.15069522816568	97.94235968242006	-46.15069522816573	215.9619401069032	
4.150682595992717	282.82953378230224	-25.081840810722852	156.88067457607772	-25.081840810722866	-33.54303347688567	-49.498177003101716	156.88067457607775	-49.49817700310178	102.67320245334083	
4.206025030605954	197.7097985069209	-47.555592835403004	193.55578974720152	-47.55559283540296	-48.595353992403744	-52.78746978005829	193.55578974720157	-52.78746978005835	31.73993193955952	
4.261367465219189	109.23961570035432	-59.83738762180189	185.09368101979214	-59.83738762180175	-51.6042221584878	-69.31049181273441	185.09368101979226	-69.31049181273448	5.723828322192983	
4.316709899832426	55.84482080749559	-55.935017247234725	135.7423488395073	-55.93501724723452	-27.646158047177266	-108.80324247660941	135.74234883950737	-108.8032424766095	6.134595341251102	
4.372052334445662	61.01238859610392	-42.717198304321485	73.24746555566469	-42.7171983043212	30.717142590350107	-162.25534619564036	73.24746555566479	-162.25534619564047	4.859705221557327	
4.427394769058898	97.54768596848963	-44.77182136865663	29.641181625335243	-44.771821368656305	104.93092873310589	-204.51593195755225	29.641181625335328	-204.51593195755243	-13.170100660205552	
4.4827372036721345	88.86643430399612	-85.85820578661716	21.80740852460463	-85.85820578661671	154.24378080922355	-208.99440178873422	21.807408524604693	-208.99440178873442	-34.24223649819254	
4.538079638285371	-22.41038116139319	-161.7702924868537	42.5902721401813	-161.77029248685335	151.43684477875414	-162.40493628502287	42.590272140181355	-162.4049362850231	-21.96304709255321	
4.593422072898607	-196.89095562299704	-236.36114674342656	67.42122474301206	-236.36114674342633	115.58577583212488	-75.47864797059802	67.42122474301212	-75.47864797059825	56.63840536942378	
4.648764507511843	-312.3246991808724	-267.78554206831126	73.74975752001524	-267.7855420683112	96.90596026216618	17.402156238759538	73.74975752001528	17.40215623875934	203.15266678194905	
4.70410694212508	-276.58387042369384	-239.6685321092374	59.22474300566681	-239.66853210923745	124.41501187703975	77.3891332663707	59.22474300566685	77.38913326637054	380.52369507724006	
4.759449376738315	-114.5425167135665	-172.4692725137266	41.78671820316539	-172.4692725137267	178.9529013157647	86.89387186765993	41.786718203165435	86.89387186765983	533.1549332121499	
4.814791811351552	70.07733790832945	-109.02314768676695	40.09868847932167	-109.0231476867671	221.69826706399232	56.63117347601744	40.09868847932172	56.631173476017366	615.7110875642675	
4.870134245964788	196.81036050706143	-82.93398011773114	53.48896780817297	-82.93398011773135	237.20140696426228	9.148485113425192	53.48896780817303	9.148485113425114	608.6991361529548	
4.925476680578024	252.32297851902246	-91.76653386272457	63.368735746646834	-91.76653386272481	242.55098045957632	-39.45033980298594	63.36873574664688	-39.45033980298603	519.6409293050598	
4.98081911519126	264.21706875638796	-100.13744779229002	55.14460359182791	-100.13744779229026	269.0656014389982	-82.42889310797835	55.14460359182792	-82.42889310797842	378.5499971300286	
5.036161549804497	276.11818794119915	-72.95004431078803	35.119088414537856	-72.95004431078824	344.1668579433426	-116.56070315033082	35.11908841453784	-116.56070315033077	227.77234909031955	
5.091503984417733	339.26598568208124	-6.681180202284271	21.87160495674582	-6.681180202284374	476.45600243575734	-140.64857268493955	21.87160495674576	-140.64857268493932	105.34668187990992	
5.146846419030969	479.02368204762104	69.93113693868513	22.85315941465207	69.93113693868516	641.9163793813184	-158.17012715424997	22.85315941465194	-158.17012715424957	29.913348338526973	
5.202188853644206	649.3910765588087	120.23019894779078	25.15387062063505	120.23019894779095	788.2709437433782	-176.19371726796618	25.1538706206349	-176.19371726796567	-5.60453327553785	
5.257531288257442	754.2961158238129	119.63327212385687	10.347257726529776	119.63327212385704	867.4513119420725	-199.87511078343056	10.347257726529623	-199.87511078343002	-28.722436386305787	
5.312873722870678	742.5221564400898	64.80762562763289	-25.682994747722265	64.80762562763297	866.442149977228	-227.374124231742	-25.682994747722347	-227.3741242317416	-68.70137864614337	
5.368216157483914	658.7578257879343	-17.793162597121324	-68.14163653184026	-17.79316259712138	801.8969230207894	-247.43215670221008	-68.14163653184026	-247.43215670220982	-133.23624720617076	
5.423558592097151	575.0316897034425	-76.04260047213091	-95.15374856803021	-76.0426004721312	688.9217751304343	-242.148992216014	-95.1537485680301	-242.14899221601394	-202.2461195961003	
5.478901026710386	499.84395881698833	-63.717621819139495	-93.75889038615894	-63.71762181913991	525.3534027261535	-197.37992350904022	-93.75889038615873	-197.37992350904014	-246.40695327227456	
5.534243461323623	392.2433516937036	24.382180918203403	-66.3253930145472	24.38218091820275	311.88365478717253	-114.02293284888813	-66.32539301454685	-114.02293284888802	-249.39876935665035	
5.589585895936859	247.20945694722224	149.7669289633654	-23.273892367918585	149.76692896336453	79.53414508905871	-9.276351612925083	-23.27389236791806	-9.276351612924834	-211.94078957328884	
5.644928330550095	121.35751685083672	259.15602235018923	26.05930493681448	259.1560223501883	-117.50453074599146	92.24454678645269	26.059304936815177	92.24454678645307	-142.18014191571274	
5.7002707651633315	71.3378544519542	316.7071479127071	71.41863752282467	316.70714791270643	-235.69845875492405	168.8185633860067	71.41863752282552	168.8185633860072	-49.805235687885585	
5.755613199776568	102.41417084477766	320.32548196329213	95.08216620877683	320.3254819632918	-258.78216148042975	207.65883757483365	95.08216620877779	207.65883757483414	52.96449727873949	
