# Stress in units of bar (10^5 Pa)
# z	Sxx	Sxy	Sxz	Syx	Syy	Syz	Szx	Szy	Szz
0.0	-112.76132256854598	39.16294735683358	27.125807303014806	39.16294735683303	213.9529255436815	24.346447953642866	27.125807303014515	24.346447953643256	106.79275760772663	
0.05534243461323623	-122.86598398252801	40.30630745882735	21.771278143758124	40.30630745882669	203.01659718926476	22.45388729377208	21.771278143757865	22.453887293772468	87.9330344941352	
0.11068486922647246	-132.65305747913175	38.64981598143872	20.057529679851363	38.64981598143804	188.08788106459465	21.124432779150492	20.057529679851104	21.12443277915088	64.22314248283035	
0.16602730383970868	-141.1855634434162	35.28428638938746	21.740912406571262	35.28428638938671	169.0654018314024	19.861848985732323	21.740912406571013	19.86184898573272	37.039705860788715	
0.22136973845294491	-147.47886996913547	31.355817618226958	26.367630137914546	31.355817618226197	146.28270244564118	18.210834043322166	26.367630137914265	18.210834043322585	8.23401850195409	
0.2767121730661811	-150.41367015770254	28.091747484399615	33.36272473543143	28.091747484398855	120.61674875207328	15.865765159945205	33.36272473543116	15.86576515994566	-20.05678894772843	
0.33205460767941736	-149.04724354411576	26.357235568479375	42.09017371088731	26.35723556847867	93.40765435800273	12.734690107757107	42.09017371088702	12.73469010775761	-45.64924796805463	
0.3873970422926536	-142.71579069439943	26.668622084405577	51.88334522484289	26.668622084404934	66.2917851870323	8.960139758768449	51.88334522484257	8.960139758769012	-66.5506058850323	
0.44273947690588983	-131.08883597638084	29.019384497530517	62.06392747922126	29.01938449752992	40.992477892190834	4.930443875537867	62.06392747922091	4.930443875538505	-81.16696335590466	
0.49808191151912606	-114.61625938785103	33.05359414321591	71.93735776472535	33.053594143215435	18.87230030146046	1.228592956925084	71.93735776472496	1.22859295692579	-88.473166408249	
0.5534243461323622	-94.21400783303733	38.061611649417586	80.80981229892583	38.0616116494172	0.9536007052898867	-1.4410321340865089	80.80981229892541	-1.441032134085729	-88.0778645573653	
0.6087667807455985	-71.52426477284382	43.27348662153843	88.01176663392525	43.27348662153817	-12.481003704770743	-2.35191137705932	88.01176663392476	-2.351911377058478	-80.21024510124188	
0.6641092153588347	-48.57370853204214	47.9304722086996	92.9638230502717	47.93047220869947	-21.63421964967892	-0.8595606015016664	92.96382305027119	-0.8595606015007711	-65.63985672711502	
0.719451649972071	-27.73810204011277	51.46183026240735	95.23558687318052	51.46183026240734	-27.321878558071724	3.5104684195150178	95.23558687317998	3.510468419515945	-45.519087152196775	
0.7747940845853072	-11.124125237761808	53.59519308320999	94.60475117960972	53.595193083210134	-30.474925867087084	10.995755817267106	94.60475117960917	10.995755817268039	-21.210744757372627	
0.8301365191985435	-0.5618231700573446	54.33001205107045	91.09520729526332	54.330012051070696	-32.054754077374035	21.54988396742653	91.09520729526278	21.549883967427444	5.8623285278363575	
0.8854789538117797	2.747587777571212	53.899156160051646	84.99035542991581	53.899156160052016	-32.93847046484156	34.82971565966523	84.99035542991528	34.8297156596661	34.34108067203821	
0.9408213884250158	-1.3508106804220361	52.71406815251481	76.79671311247724	52.714068152515296	-33.53341767321201	50.248843353792054	76.79671311247672	50.24884335379285	63.01328657470243	
0.9961638230382521	-12.303273412084124	51.28896542396642	67.17530875639915	51.28896542396702	-34.05035984838528	67.05016532288846	67.17530875639866	67.05016532288914	90.7985353633234	
1.0515062576514884	-28.497284126462624	49.954448878770165	56.85154309639002	49.95444887877085	-34.284159474821415	84.37533698567928	56.85154309638959	84.37533698567984	116.71677101751435	
1.1068486922647245	-47.63674372005023	48.98952631679202	46.56449127743932	48.989526316792805	-33.83165293838687	101.36296572661709	46.56449127743895	101.3629657266175	139.84692289470598	
1.1621911268779608	-66.76682726577504	48.415174154098096	36.991055680425006	48.41517415409892	-32.11353249528014	117.21124069659709	36.9910556804247	117.21124069659739	159.30337051586733	
1.217533561491197	-82.81153724618694	48.086705391884955	28.696190715171674	48.086705391885815	-28.36209119987114	131.22660216323834	28.69619071517144	131.2266021632385	174.2586642665028	
1.2728759961044334	-92.74156187745089	47.658577725452716	22.13434467199141	47.65857772545358	-21.734829627307896	142.80857509138218	22.134344671991244	142.80857509138224	184.00485720902728	
1.3282184307176694	-93.9973760274763	46.74643814823705	17.620100657017513	46.74643814823784	-11.337626320213502	151.39803448353007	17.620100657017428	151.39803448353004	188.03186629404016	
1.3835608653309057	-84.7299050731729	45.01915601412682	15.353357535529446	45.019156014127546	3.952506890954769	156.4086027010449	15.353357535529437	156.40860270104483	186.1739039508559	
1.438903299944142	-64.05053648662245	42.299002383848475	15.416920572848802	42.2990023838491	25.16422679719659	157.1934093731505	15.416920572848873	157.1934093731504	178.68630856162264	
1.494245734557378	-32.04991086759091	38.579912872701975	17.771280045415033	38.57991287270247	53.259024239712076	153.0484742385047	17.771280045415175	153.04847423850458	166.3260063173912	
1.5495881691706144	10.119294824349424	34.0746129375782	22.308407839215214	34.07461293757858	88.97584317643752	143.3041508472678	22.30840783921542	143.30415084726772	150.3142116126441	
1.6049306037838507	60.53736442137115	29.13633246967079	28.899671868125274	29.13633246967102	132.53115677734365	127.456218890828	28.89967186812555	127.45621889082793	132.2920168016454	
1.660273038397087	116.56158809867152	24.207691646366637	37.42955909797482	24.20769164636676	183.5478504263503	105.33301169996759	37.429559097975165	105.33301169996753	114.19096974909232	
1.715615473010323	175.1881193139139	19.640794384989228	47.84085309640223	19.640794384989274	240.85507389507035	77.26643164460427	47.84085309640262	77.26643164460425	98.0257817936586	
1.7709579076235593	233.17834760875866	15.750694404197104	60.154701389953146	15.750694404197088	302.54393236265537	44.19939402787994	60.15470138995357	44.19939402787999	85.69439095473317	
1.8263003422367956	287.3404521392454	12.70682619762874	74.4264075145747	12.706826197628686	366.05878283332265	7.6704940453878	74.42640751457515	7.670494045387892	78.78212415007657	
1.8816427768500317	334.6593214758725	10.526947100875834	90.66694566014615	10.526947100875773	428.43312682179476	-30.303196093482345	90.66694566014661	-30.30319609348222	78.37285765390645	
1.936985211463268	372.4379831880679	9.175708603471932	108.6786383317004	9.175708603471914	486.4564496327325	-67.44365218172157	108.67863833170088	-67.44365218172143	84.94787008205611	
1.9923276460765043	398.5567965588744	8.538233882375634	127.93227784713974	8.538233882375632	537.0917331723546	-101.48043991408721	127.9322778471402	-101.48043991408707	98.36964524365132	
2.0476700806897403	411.56989645411943	8.544681761603783	147.4484148612887	8.544681761603798	577.6542128781819	-130.43656984392464	147.44841486128922	-130.43656984392447	117.93127519218706	
2.103012515302977	410.950369622897	9.142821258921032	165.76185049668638	9.142821258921145	606.0970387084403	-152.8371828296998	165.7618504966868	-152.83718282969966	142.48160236942414	
2.158354949916213	397.28765315431656	10.300523575009233	181.02427475185448	10.300523575009333	621.1441783960868	-167.8788579137415	181.02427475185488	-167.87885791374143	170.58097599172726	
2.213697384529449	372.16937437505567	12.001872631629695	191.22754457304256	12.00187263162983	622.248599266268	-175.45047938955753	191.22754457304293	-175.45047938955742	200.7002086015904	
2.2690398191426855	338.36900317268214	14.168632119395	194.52266837878702	14.168632119395134	609.7492986598918	-176.0746446426763	194.5226683787873	-176.07464464267628	231.39151451576365	
2.3243822537559216	299.43944760086595	16.643808768681644	189.57417787997892	16.643808768681815	584.5631985629151	-170.76546312414	189.5741778799792	-170.76546312414004	261.3601316081838	
2.3797246883691576	259.4537211037211	19.219191993439814	175.9008820157185	19.219191993439942	548.243923388082	-160.83136772676934	175.90088201571876	-160.83136772676932	289.4805282826944	
2.435067122982394	222.51981941766346	21.54146594926678	154.05323671209936	21.541465949266893	502.67379144024915	-147.69516432869796	154.0532367120996	-147.695164328698	314.76833064226554	
2.49040955759563	192.3702584046335	23.216862428570742	125.64420307172014	23.21686242857088	450.0576474000399	-132.70592667074888	125.64420307172034	-132.70592667074894	336.32793939411306	
2.5457519922088667	171.87744422378904	23.80709751904902	93.17620895919265	23.807097519049147	392.7918394677343	-117.03760708936542	93.1762089591928	-117.03760708936554	353.2749663540553	
2.601094426822103	162.74161543657618	22.921496228143585	59.69472330420171	22.92149622814371	333.3776789961869	-101.6025197659695	59.69472330420189	-101.60251976596963	364.71677803238686	
2.656436861435339	165.2786187552337	20.29311095247858	28.344403206982427	20.293110952478692	274.2589545209322	-87.03807500397923	28.344403206982605	-87.03807500397936	369.80698766145883	
2.7117792960485754	178.37489032794656	15.832481239904496	1.9012825198838499	15.832481239904578	217.84056175983287	-73.76651701405395	1.9012825198840488	-73.76651701405407	367.82351028478195	
2.7671217306618114	199.80255052729822	9.725266586735433	-17.590529144521533	9.725266586735525	166.30172435940884	-62.0483760630672	-17.590529144521355	-62.04837606306734	358.3381538349461	
2.8224641652750475	226.15715515304265	2.43949249057299	-29.06715823353027	2.439492490573066	121.22243079650634	-52.055402655549685	-29.06715823353011	-52.05540265554983	341.3877366403355	
2.877806599888284	253.5503816780535	-5.3501554507809	-32.494401924372376	-5.350155450780836	83.66808519714088	-43.915163305099	-32.4944019243722	-43.91516330509914	317.63532730981564	
2.93314903450152	277.89430509948903	-12.87252620902597	-28.752345873761058	-12.872526209025914	53.7516409288161	-37.73645764234956	-28.752345873760884	-37.736457642349706	288.46773013115546	
2.988491469114756	295.55688959025895	-19.444503915228808	-19.38982944836662	-19.444503915228772	30.919510181074287	-33.60226341646216	-19.38982944836647	-33.60226341646231	256.00207483714445	
3.0438339037279927	303.47023750116745	-24.58980045697109	-6.329558797295917	-24.589800456971048	13.679578382064264	-31.534939009337435	-6.3295587972957605	-31.534939009337585	222.96178631462524	
3.0991763383412287	299.8843953916289	-28.266849108983898	8.423842420564405	-28.26684910898384	0.07627317452245563	-31.45119596482042	8.42384242056455	-31.451195964820577	192.4492516316696	
3.154518772954465	284.3249899500961	-30.75993456601914	23.017887948470264	-30.759934566019112	-11.979004744693526	-33.13941119673981	23.017887948470403	-33.13941119673995	167.60588359463975	
3.2098612075677013	257.5340998357749	-32.72160445882708	35.949848025790054	-32.72160445882705	-24.55397404993087	-36.294683065122285	35.949848025790175	-36.29468306512242	151.2202294565848	
3.2652036421809374	221.7258084405397	-34.938164192562226	46.165881759855395	-34.93816419256218	-38.95394629233109	-40.522014991430254	46.1658817598555	-40.52201499143036	145.37653068669357	
3.320546076794174	179.89636522156277	-37.976703442437916	53.09846774040156	-37.9767034424379	-55.92716828698656	-45.350912470906444	53.09846774040167	-45.35091247090653	151.14053194861194	
3.37588851140741	135.67451324537495	-42.23409262164659	56.63108609156134	-42.23409262164657	-75.19553016816704	-50.33229468219973	56.631086091561436	-50.33229468219981	168.37952298707023	
3.431230946020646	92.76372975337458	-47.56803836064614	57.07620369098495	-47.568038360646135	-95.82421592255382	-55.069375975390145	57.076203690985025	-55.0693759753902	195.72348971037732	
3.4865733806338826	54.748003910961835	-53.42802713979873	55.099519889233186	-53.42802713979873	-116.2636209603408	-59.256522691962445	55.09951988923325	-59.25652269196247	230.6852016595443	
3.5419158152471186	24.467000559247694	-58.909779711760265	51.58618174160119	-58.90977971176026	-134.72093473934174	-62.694569742822274	51.58618174160125	-62.694569742822274	269.91758683764505	
3.5972582498603547	4.047616893989996	-63.06947522191388	47.5537653407267	-63.06947522191391	-149.4002498647021	-65.29376220331568	47.55376534072674	-65.29376220331565	309.5740348303077	
3.652600684473591	-5.489454734000361	-65.14628219828813	43.99602854295851	-65.14628219828815	-158.91588503224204	-67.071214597758	43.99602854295855	-67.07121459775797	345.6745953326683	
3.7079431190868273	-4.28586480719467	-64.73877643402523	41.78844017778089	-64.73877643402524	-162.42673069489038	-68.13710095681398	41.78844017778092	-68.13710095681395	374.5715701531292	
3.7632855537000633	6.453642719186405	-61.95292391553903	41.572654045862194	-61.95292391553905	-159.67172215673764	-68.68718733504502	41.57265404586222	-68.687187335045	393.3262730882704	
3.8186279883133	24.553214615561828	-57.36544515639232	43.653448631071186	-57.36544515639233	-151.13577034984786	-68.99268122440944	43.65344863107121	-68.99268122440941	400.050727355819	
3.873970422926536	47.14684384111842	-51.90418822838352	47.97478537776563	-51.90418822838354	-137.6774640636462	-69.37424070116226	47.974785377765656	-69.37424070116222	394.0684339253702	
3.9293128575397724	70.94651477733728	-46.66911522841565	54.148964001181746	-46.66911522841565	-120.51492644051953	-70.15161664130768	54.148964001181774	-70.15161664130767	376.010879678923	
3.9846552921530085	92.80280363618603	-42.687083140143706	61.499566444167606	-42.6870831401437	-100.88955300791363	-71.60367725235358	61.499566444167634	-71.60367725235356	347.74525666544037	
4.039997726766245	109.9030841411745	-40.834566282240495	69.18078514884311	-40.83456628224049	-79.93373040827674	-73.88746146108033	69.18078514884313	-73.88746146108035	312.1232934531816	
4.095340161379481	120.28789397911117	-41.710602139324486	76.28753094267763	-41.71060213932443	-58.47518090877365	-76.9725129343044	76.28753094267766	-76.97251293430443	272.6603344121766	
4.150682595992717	122.9328201557257	-45.52265448377397	82.00399759516246	-45.52265448377391	-37.08702977225125	-80.58682430470887	82.0039975951625	-80.58682430470894	233.16904412276074	
4.206025030605954	117.78979169465428	-52.18981799815088	85.74779282061687	-52.18981799815078	-15.929496349119958	-84.21804889920665	85.74779282061692	-84.2180488992067	197.33025184336736	
4.261367465219189	105.81681514879281	-61.35358505477775	87.2263774628266	-61.35358505477766	4.946489512683172	-87.18543418073578	87.22637746282663	-87.18543418073585	168.34109367278407	
4.316709899832426	88.80459732818721	-72.40504372624083	86.47751682562307	-72.4050437262407	25.70355473280995	-88.75738259101485	86.47751682562313	-88.75738259101495	148.63323264567714	
4.372052334445662	69.13000035540745	-84.54973622242395	83.83417064935708	-84.54973622242383	46.492465382795004	-88.31247505787549	83.83417064935713	-88.3124750578756	139.66330834937526	
4.427394769058898	49.52751432274343	-96.79104609256396	79.80829833052321	-96.79104609256382	67.56228520216673	-85.51272624558707	79.80829833052327	-85.51272624558722	141.760260029427	
4.4827372036721345	32.87706479033004	-108.0739322999567	74.97704195170488	-108.07393229995658	89.2335699682342	-80.44791676904362	74.97704195170492	-80.44791676904376	154.06336066762964	
4.538079638285371	21.8849599862571	-117.31722464293766	69.86729950566072	-117.31722464293757	111.7964525384239	-73.68499167120648	69.86729950566078	-73.68499167120659	174.54897507635863	
4.593422072898607	18.90226440943212	-123.52885718497333	64.87244260210863	-123.52885718497326	135.8505418275239	-66.22223558644814	64.87244260210868	-66.22223558644825	200.23105124676886	
4.648764507511843	25.67762033274947	-125.96181893005043	60.185695068368574	-125.96181893005038	161.99908703404722	-59.35135412323131	60.185695068368624	-59.35135412323142	227.43546035556767	
4.70410694212508	43.06488049252076	-124.15518495394498	55.82159550532869	-124.15518495394498	190.90926334171905	-54.39775295695618	55.82159550532872	-54.39775295695628	252.19261626964533	
4.759449376738315	70.9889274950175	-117.99497792248128	51.635749855885194	-117.9949779224813	223.16930024199323	-52.49252171157628	51.63574985588522	-52.492521711576345	270.7243119364265	
4.814791811351552	108.52712896602256	-107.81763465302937	47.38687997578975	-107.81763465302943	259.1210042036961	-54.37169080604783	47.386879975789775	-54.37169080604786	279.94847523701117	
4.870134245964788	153.76879381291724	-94.22043371477227	42.81539851646443	-94.22043371477235	298.4988562488182	-60.21200111005652	42.815398516464434	-60.21200111005653	277.87797904986246	
4.925476680578024	204.25145133614876	-78.11274911859414	37.69695383604131	-78.11274911859427	340.4795995391072	-69.59800561681658	37.69695383604131	-69.59800561681655	263.8335462032659	
4.98081911519126	256.9412767533055	-60.45685357158905	31.889486492109512	-60.45685357158918	383.309983729353	-81.56873838856356	31.889486492109498	-81.56873838856349	238.51087351444986	
5.036161549804497	308.5861612944774	-42.20243698489968	25.370620152181047	-42.202436984899784	424.42079063646344	-94.75142481870597	25.37062015218104	-94.75142481870587	203.79887399403992	
5.091503984417733	355.9925228863915	-24.12824935124388	18.27968261381887	-24.128249351244026	460.66710620195136	-107.50811601705729	18.279682613818867	-107.50811601705713	162.46764358255285	
5.146846419030969	396.20061997893373	-6.654665075548398	10.912867658738818	-6.654665075548552	488.43979764919095	-118.12374512278576	10.91286765873883	-118.1237451227856	117.78314972672942	
5.202188853644206	426.6990509333287	10.157300260808547	3.700739341112511	10.157300260808384	504.3281088722945	-124.98160802250237	3.700739341112543	-124.98160802250219	73.14869486947626	
5.257531288257442	445.7180248069456	26.602115102364554	-2.8363009133779116	26.60211510236436	505.4347647579041	-126.72990124017088	-2.8363009133778405	-126.72990124017068	31.767842509885302	
5.312873722870678	452.48663570264637	43.2494557977238	-8.169685363933045	43.24945579772358	490.09289357705006	-122.43660068288914	-8.169685363932928	-122.43660068288892	-3.558174048545208	
5.368216157483914	447.19122999619674	60.795312349931514	-11.86463427254194	60.79531234993128	458.10365371665944	-111.71892917028522	-11.864634272541762	-111.71892917028501	-30.604461066128707	
5.423558592097151	431.0482642511838	79.77059327977965	-13.674292868004775	79.77059327977939	410.8766425247273	-94.81286854531413	-13.67429286800454	-94.81286854531389	-47.80135618283019	
5.478901026710386	406.12509502501234	100.40587739247431	-13.619164361238248	100.40587739247403	351.40263172756977	-72.58345436822083	-13.619164361237923	-72.58345436822059	-54.314390678843424	
5.534243461323623	374.86425573825977	122.45685944445572	-11.994556955304253	122.45685944445543	283.71711634061217	-46.46997625742277	-11.994556955303853	-46.46997625742253	-50.08726497658502	
5.589585895936859	339.70488814336517	145.14122529951072	-9.317193501956243	145.14122529951035	212.42308899151163	-18.326311989576638	-9.317193501955769	-18.3263119895764	-35.85622712873795	
5.644928330550095	302.67054701777386	167.32473422632455	-6.2265105695488305	167.3247342263242	142.08683970450377	9.829607876338624	-6.22651056954828	9.829607876338851	-13.109636204652269	
5.7002707651633315	265.0163044314774	187.50731299633927	-3.3411912592663295	187.50731299633892	76.60172378835314	36.055242606219764	-3.341191259265706	36.05524260621999	16.054137415744076	
5.755613199776568	227.07701276558757	204.28522076383427	-1.1204483659547364	204.28522076383393	18.920075157289375	58.729466124985706	-1.1204483659540685	58.729466124985905	49.13487492420221	
5.810955634389804	188.5026423357072	216.3227181145754	0.2088420662490762	216.32271811457503	-29.245328563014446	76.73544538339252	0.20884206624975832	76.7354453833927	83.52015759972448	
