# Stress in units of bar (10^5 Pa)
# z	Sxx	Sxy	Sxz	Syx	Syy	Syz	Szx	Szy	Szz
0.0	126.48291794486275	-202.8250424778993	-126.3167333326451	-202.82504247790047	12.688477558034208	106.7886808300585	-126.3167333326452	106.78868083005761	161.18406379044944	
0.05192519442152321	93.20627005653066	-174.02464454607977	-116.06312903893375	-174.02464454608082	53.47916048896454	84.37386022156116	-116.06312903893391	84.37386022156042	191.683845993792	
0.10385038884304643	66.86395893015082	-148.5921361076094	-109.03936740214336	-148.5921361076104	90.42897204905361	58.754027734241106	-109.03936740214357	58.75402773424057	223.96379239476778	
0.15577558326456964	49.9507599008879	-125.97365562977203	-105.16781000841925	-125.97365562977299	118.92588081257782	30.553667701476293	-105.16781000841954	30.55366770147594	257.2404939990986	
0.20770077768609285	43.06704875009129	-105.30079841035041	-103.97168855951801	-105.30079841035132	134.5283693763506	0.9033242675793369	-103.97168855951843	0.9033242675791859	290.64919172773034	
0.25962597210761607	44.85604370319041	-85.64636667687184	-104.6135338664584	-85.64636667687277	133.98767830959997	-28.680391412374632	-104.61353386645891	-28.6803914123746	323.30664173205116	
0.3115511665291393	52.62381192306762	-66.23136221799275	-105.98917034004157	-66.23136221799368	115.63438390457961	-56.46061295813517	-105.98917034004215	-56.46061295813497	354.38930513605436	
0.3634763609506625	62.847533472317295	-46.68739188193004	-106.82305244782839	-46.687391881930985	79.71325408542663	-80.71463896482516	-106.82305244782907	-80.71463896482479	383.2337876563552	
0.4154015553721857	71.92788045231653	-27.094711179478168	-105.81467749907226	-27.094711179479077	28.814708299597385	-99.94787122647503	-105.814677499073	-99.94787122647452	409.4204378625958	
0.4673267497937089	77.19361119999061	-8.165734828071777	-101.85306530856185	-8.165734828072694	-32.81547028029223	-113.06225991163147	-101.85306530856263	-113.06225991163086	432.8573572277468	
0.5192519442152321	77.20607154634074	8.941391017962161	-94.2134118436391	8.941391017961351	-99.47500566996732	-119.48920109389891	-94.21341184363985	-119.48920109389819	453.79997470088284	
0.5711771386367553	72.19350816640089	22.8728023657483	-82.7279384330587	22.87280236574756	-164.81993014587783	-119.23757376078915	-82.72793843305936	-119.23757376078837	472.7986232917915	
0.6231023330582786	63.496157226460355	32.46012304181829	-67.89937212258391	32.46012304181767	-222.97269891859875	-112.89033266194949	-67.89937212258448	-112.89033266194865	490.58573882132987	
0.6750275274798018	53.57362410756568	36.81706624391455	-50.86063094949519	36.81706624391402	-269.02989155497835	-101.48921597206586	-50.86063094949559	-101.48921597206498	507.90010681951685	
0.726952721901325	44.865877353314325	35.71363811964085	-33.24866134479789	35.71363811964049	-300.1116806244284	-86.39510609790759	-33.248661344798116	-86.39510609790672	525.3312812064692	
0.7788779163228482	39.06384296711883	29.549269932827844	-16.949162996434893	29.549269932827645	-315.65978490891007	-69.0935347371944	-16.949162996434936	-69.09353473719354	543.1831675527397	
0.8308031107443714	37.13881713518458	19.31054748437446	-3.7726578538154314	19.31054748437441	-317.4789206935569	-50.98128207551627	-3.7726578538152893	-50.98128207551544	561.3691310096663	
0.8827283051658946	38.21000865467729	6.265883924504131	4.8717447499558375	6.2658839245041875	-309.28263757335054	-33.17989521933672	4.871744749956136	-33.17989521933594	579.3988621565451	
0.9346534995874178	40.85198477040022	-8.223041291981033	8.232693566183848	-8.223041291980891	-295.7360263818242	-16.413146460128914	8.232693566184246	-16.41314646012821	596.4844381416458	
0.986578694008941	42.51716201751833	-23.2095498291407	6.335921330657037	-23.209549829140528	-281.32223737236774	-0.9343681287748655	6.335921330657488	-0.934368128774242	611.5745768516939	
1.0385038884304643	41.10114612976282	-38.1280103494051	-0.020821391981804993	-38.12801034940489	-269.48213722044363	13.433230428085242	-0.020821391981388437	13.433230428085768	623.4985406423991	
1.0904290828519874	34.8325643703113	-52.916494453853204	-9.463282174324883	-52.91649445385295	-261.7216725473284	27.179881160136286	-9.463282174324558	27.179881160136727	631.0448368066301	
1.1423542772735107	23.334171508074853	-67.85428612362396	-20.271009160185553	-67.85428612362364	-257.18142853649726	40.943801842265415	-20.271009160185343	40.943801842265756	633.001453282342	
1.194279471695034	7.137209066365797	-83.36075578875574	-30.696561259399402	-83.36075578875543	-253.10155873919885	55.3182478177837	-30.696561259399385	55.31824781778397	628.2374270673082	
1.2462046661165571	-11.90035598169132	-99.58244826080447	-39.208945278726056	-99.58244826080411	-245.5356074267227	70.686255601277	-39.20894527872622	70.68625560127717	615.6855852271508	
1.2981298605380802	-31.556560875874027	-116.15082984574508	-44.71571571028343	-116.15082984574477	-230.42764913018186	87.11465827154902	-44.71571571028379	87.11465827154912	594.434010848554	
1.3500550549596035	-49.537688518877786	-132.08376127308338	-46.6312389927198	-132.083761273083	-204.59440226381483	104.30568793334076	-46.63123899272031	104.30568793334078	563.8204985611626	
1.4019802493811269	-63.99608334497324	-145.77017879809688	-44.913376958290826	-145.77017879809654	-166.89458164312194	121.62289599637467	-44.91337695829146	121.62289599637464	523.571417285287	
1.45390544380265	-74.05604012922008	-155.24798808388266	-39.95513903051281	-155.24798808388232	-118.39239367039036	138.13730349604708	-39.95513903051352	138.13730349604705	474.0599610872862	
1.505830638224173	-80.00594491380207	-158.53352315086653	-32.49831883635853	-158.53352315086613	-62.48890643741452	152.72556634089162	-32.498318836359275	152.72556634089148	416.4380040238241	
1.5577558326456964	-82.66735548914971	-154.00538411697866	-23.50571216690973	-154.0053841169783	-4.07661248874571	164.19015298146132	-23.50571216691047	164.1901529814612	352.7723030245222	
1.6096810270672197	-83.6442695008501	-140.82939275343813	-14.001777065770446	-140.82939275343776	51.25271236237478	171.3874906714706	-14.001777065771144	171.38749067147052	286.05296860216276	
1.6616062214887428	-84.29864779286373	-119.12508505375298	-4.95073934227235	-119.12508505375266	98.61967604045103	173.3595371541075	-4.950739342272959	173.35953715410741	220.0055861350291	
1.713531415910266	-85.62283045240567	-90.0801407078425	2.829114608217896	-90.08014070784222	134.86327531745235	169.4848756758979	2.829114608217358	169.4848756758978	158.69059564619772	
1.7654566103317892	-87.87835068089561	-56.0293393675137	8.75543222849463	-56.02933936751349	158.8577934066058	159.61066337077804	8.755432228494197	159.61066337077793	106.01253967669362	
1.8173818047533126	-90.54276296723395	-19.936135232681835	12.520997397312584	-19.936135232681664	172.30466232340262	144.17802484852493	12.520997397312225	144.17802484852484	65.15852048853645	
1.8693069991748357	-92.4326778550111	14.870065365804919	14.080233061175335	14.870065365805061	178.6506985782472	124.27600483493049	14.080233061175058	124.2760048349304	38.03948523789268	
1.9212321935963588	-92.02489439642017	45.27770242994465	13.63159281331667	45.27770242994474	182.78584128832813	101.5941169032726	13.631592813316441	101.59411690327252	24.978643673458482	
1.973157388017882	-87.78798455833919	68.73085684824997	11.500684136679249	68.73085684825004	189.5365553230569	78.29143696197104	11.500684136679059	78.29143696197099	24.587333907676104	
2.0250825824394054	-78.62596084779301	83.69260881052436	8.060186435024207	83.69260881052425	202.8626297879954	56.77202337878988	8.060186435024034	56.772023378789825	33.88777099059198	
2.0770077768609285	-64.05585792641202	89.7695455439384	3.620801304025001	89.76954554393824	225.00043121427672	39.35794365527578	3.620801304024866	39.35794365527573	48.68857267669132	
2.1289329712824516	-44.49517511506343	87.69182815739018	-1.6558419684779553	87.69182815739002	255.81576874998666	28.02230921569072	-1.65584196847806	28.02230921569068	64.1708220974322	
2.1808581657039747	-21.097155264058586	78.99128092403443	-7.789738842013171	78.99128092403421	293.269325621114	24.087972904208932	-7.789738842013256	24.087972904208932	75.56179322176098	
2.2327833601254983	4.056931918575401	65.91015446257406	-14.96099085701352	65.9101544625739	333.43761363208705	28.030055571475316	-14.960990857013577	28.0300555714753	78.82432590793968	
2.2847085545470214	28.370617262818172	50.68162472742431	-23.405863808637616	50.681624727424136	371.49593727325225	39.362277038794254	-23.405863808637662	39.362277038794254	71.29599713537027	
2.3366337489685445	48.97478386420477	35.47744134470173	-33.29386563009105	35.47744134470159	402.6063202959561	56.678993539318846	-33.29386563009108	56.67899353931886	52.138324926487456	
2.388558943390068	63.10763523706636	22.061280728543366	-44.609829195244885	22.061280728543238	422.54353722310964	77.77649559526334	-44.609829195244885	77.77649559526337	22.499753538895128	
2.440484137811591	68.65762278863963	11.755808198165553	-57.02583487027331	11.755808198165468	428.68913487215946	99.89409682713656	-57.02583487027332	99.89409682713661	-14.644641516918867	
2.4924093322331142	64.27644907264367	5.3749833924946415	-69.84761842876026	5.374983392494656	420.27856431491057	120.04215902971103	-69.84761842876023	120.04215902971109	-55.00971913523196	
2.5443345266546373	49.887732140079834	3.403481335484031	-82.05044351442568	3.403481335484077	398.4195203292009	135.3283512036998	-82.05044351442571	135.32835120369984	-93.7628631015919	
2.5962597210761604	26.46349862580223	6.012006838384451	-92.33912423169285	6.012006838384508	366.0604574165459	143.30350976068192	-92.33912423169284	143.30350976068195	-126.4321909971715	
2.648184915497684	-3.8463936264275276	13.167369792426861	-99.30361386435418	13.167369792427053	327.20993191572643	142.24202916282616	-99.3036138643542	142.2420291628262	-149.7301305405851	
2.700110109919207	-38.30355715055464	24.503824182174043	-101.62373360205356	24.503824182174185	286.35487765471765	131.36009073830343	-101.62373360205359	131.3600907383035	-162.11600195265413	
2.75203530434073	-73.61639169273296	39.335393802139556	-98.26092265038807	39.335393802139706	247.6118625833879	110.91352208121948	-98.26092265038812	110.91352208121955	-164.03245976539313	
2.8039604987622537	-106.79514598754687	56.72262739307575	-88.71502520782774	56.722627393075896	213.87986907238133	82.13797819783173	-88.71502520782784	82.13797819783179	-157.67875096174814	
2.855885693183777	-134.96985583648132	75.42228698066384	-73.13605658468236	75.422286980664	186.70332227334592	47.158655988670375	-73.13605658468248	47.15865598867043	-146.43967774452565	
2.9078108876053	-155.94400292967296	93.93464685918366	-52.38664100863332	93.93464685918373	165.9538388096479	8.70562145171456	-52.386641008633426	8.705621451714592	-134.13119314246362	
2.959736082026823	-168.32598218148814	110.93527006131687	-27.999993807068027	110.93527006131697	150.16474342253386	-30.16431305849336	-27.999993807068137	-30.164313058493335	-124.17239454455022	
3.011661276448346	-171.25187190479562	125.2434694163931	-2.041083625861855	125.24346941639311	136.92169325024096	-66.45958706554184	-2.0410836258619547	-66.45958706554183	-118.97509846538325	
3.0635864708698697	-164.8466181963886	136.25484748563218	23.17178702526799	136.2548474856322	123.49649622292355	-97.58828368537934	23.171787025267882	-97.58828368537934	-119.56864315800618	
3.115511665291393	-149.61423674240854	144.0128409405712	45.35453605785817	144.0128409405713	107.40466944672549	-121.68696300179067	45.35453605785808	-121.68696300179067	-125.42278062912115	
3.167436859712916	-126.81933765565323	149.16250056764125	62.5426982452595	149.16250056764127	86.93754177545925	-137.79983445363547	62.542698245259416	-137.79983445363547	-134.65057965462324	
3.2193620541344394	-97.77229250199467	152.73335520295723	73.38302005338355	152.73335520295726	61.40073524979007	-145.92991915166033	73.38302005338349	-145.92991915166039	-144.34474435295675	
3.2712872485559625	-64.37242079743055	156.00653348099308	77.21068466877911	156.0065334809931	31.03653446110205	-146.9468884180617	77.21068466877908	-146.94688841806175	-151.08883401433008	
3.3232124429774856	-28.50928520741372	160.15575956166384	74.08455212437076	160.15575956166387	-3.08413826773387	-142.3109063532238	74.08455212437073	-142.31090635322383	-151.5610685924168	
3.3751376373990087	7.6158254792133135	165.91940523284333	64.6486777622004	165.91940523284336	-39.02019931491367	-133.77785634576537	64.64867776220038	-133.7778563457654	-143.0455214564069	
3.427062831820532	41.86897336232522	173.41659893776557	49.94992169111648	173.41659893776568	-74.74598328366862	-123.06236861407197	49.94992169111647	-123.06236861407203	-123.91189384705862	
3.4789880262420554	71.94457854627473	182.2900654748005	31.20313382198383	182.2900654748006	-108.19722702587435	-111.54033056402321	31.203133821983805	-111.5403305640233	-93.89997857208397	
3.5309132206635785	95.69973150689242	191.69200682098946	9.673558900623345	191.6920068209896	-137.43521395137677	-100.12946128974765	9.673558900623345	-100.12946128974774	-54.17218844897788	
3.5828384150851016	111.4960502727741	200.70582459246202	-13.418998919497778	200.70582459246225	-161.15184591081615	-89.25397946304275	-13.418998919497788	-89.25397946304284	-7.16924386253962	
3.634763609506625	118.28257522460291	208.3881288375353	-36.86961965839756	208.38812883753545	-178.36616999653157	-78.97301041039151	-36.86961965839758	-78.97301041039161	43.80661270415146	
3.6866888039281482	115.85188230197349	214.12760638576538	-59.44466835772435	214.12760638576555	-188.75080120628252	-69.20468788694173	-59.44466835772437	-69.20468788694183	95.09447446552315	
3.7386139983496713	105.08838839005831	217.6819908894505	-79.85870299012038	217.68199088945065	-192.34182959852728	-59.903619089241516	-79.85870299012038	-59.903619089241616	143.24644549650156	
3.7905391927711944	87.54911954306206	219.05678214789677	-96.79959338917723	219.05678214789694	-189.3146212452698	-51.237356697357775	-96.79959338917726	-51.237356697357896	185.5476629790372	
3.8424643871927175	65.58987766066674	218.5444104491609	-109.07486353513836	218.54441044916106	-180.41378800189113	-43.64386363328458	-109.07486353513839	-43.6438636332847	220.42571447584072	
3.894389581614241	41.71276867564805	216.44683812648398	-115.8265838396924	216.44683812648415	-165.51691245660152	-37.837657384891656	-115.82658383969242	-37.83765738489174	247.61879536277337	
3.946314776035764	18.331923712078783	212.96602155801455	-116.74601458483818	212.96602155801472	-144.77604952838075	-34.73500643314422	-116.74601458483822	-34.73500643314432	268.1370288828438	
3.9982399704572873	-2.6366686982187986	208.0410111325117	-112.26618605498962	208.0410111325118	-118.07453297108304	-35.287004022294795	-112.26618605498965	-35.287004022294894	284.0537696348863	
4.050165164878811	-19.674441856837326	201.48951153221017	-103.67343089428036	201.48951153221026	-85.03951845955255	-40.32270829077228	-103.67343089428039	-40.32270829077237	298.10519905959313	
4.102090359300334	-31.814637889041894	192.95545347747515	-92.97981440699013	192.95545347747526	-45.53241143607573	-50.41091246580396	-92.97981440699013	-50.410912465804046	313.19474568934334	
4.154015553721857	-38.15885203099357	182.1854863304011	-82.64110650254982	182.18548633040115	0.1556083291751591	-65.71109765094258	-82.64110650254979	-65.71109765094263	331.8653523261282	
4.20594074814338	-37.63692885373664	169.1755126256723	-75.14192641857278	169.17551262567235	51.187140401818354	-85.8891188719897	-75.14192641857272	-85.88911887198974	355.79815541373745	
4.257865942564903	-28.95624082347932	154.3173863655628	-72.52182493417274	154.3173863655628	105.98287578708911	-110.08559245254034	-72.52182493417267	-110.08559245254042	385.4851539855371	
4.309791136986426	-10.297048841061788	138.46410523251922	-76.05266444417865	138.46410523251924	162.3147357018865	-136.9333983696256	-76.05266444417853	-136.93339836962565	420.13067258215364	
4.3617163314079495	20.267778192651786	122.91378186643169	-85.91964446806801	122.91378186643169	217.47242888194597	-164.6819744883145	-85.9196444680678	-164.6819744883146	457.7639534389654	
4.4136415258294734	64.56157417741919	109.26587909451474	-101.24250011881806	109.26587909451472	268.6095345345235	-191.28157669027553	-101.24250011881784	-191.28157669027564	495.60366319271276	
4.4655667202509965	123.70546506920459	99.0486257860355	-120.2413407094039	99.04862578603549	313.06036197396924	-214.63653449851873	-120.24134070940363	-214.63653449851887	530.6344145071104	
4.51749191467252	197.52170174020665	93.50127707100745	-140.51601227719675	93.50127707100741	348.69958100618146	-232.81055340198463	-140.51601227719644	-232.8105534019848	560.176201797064	
4.569417109094043	284.3102623940553	93.21374689579676	-159.45532807765082	93.21374689579675	374.008344218969	-244.21954178083251	-159.45532807765048	-244.2195417808327	582.3388857572409	
4.621342303515566	380.5307504549705	97.94931542109335	-174.6370085570626	97.94931542109336	388.2459686802029	-247.84388868759538	-174.6370085570622	-247.84388868759555	596.2710558048133	
4.673267497937089	480.895098672136	106.56696311413876	-184.0763305204468	106.56696311413879	391.6273365156524	-243.3149076208814	-184.0763305204464	-243.31490762088163	602.140595101115	
4.725192692358612	578.9422003932236	117.3353713800492	-186.45981279017656	117.33537138004922	384.9171716740032	-230.98346870487924	-186.4598127901761	-230.98346870487944	600.9012538638129	
4.777117886780136	667.4807351726923	128.09509394956376	-181.22277797333544	128.09509394956382	369.61625749815045	-211.85112943259966	-181.22277797333496	-211.85112943259986	593.891003835239	
4.829043081201659	739.8678187354617	136.90083348741177	-168.4860194326362	136.9008334874118	347.6668915522651	-187.4319921257729	-168.48601943263571	-187.4319921257731	582.472274904217	
4.880968275623182	790.7437550509553	142.33761464676581	-149.00300990620815	142.33761464676584	321.4030504549351	-159.52521882212778	-149.00300990620758	-159.5252188221279	567.8131507559954	
4.932893470044705	817.0133526290424	143.86912457693091	-123.99566985580579	143.86912457693094	293.3356912267283	-130.0069298022013	-123.9956698558052	-130.0069298022014	550.8011309986974	
4.9848186644662285	818.3208769954294	141.9810418866627	-95.0203318767164	141.98104188666275	266.1860561280462	-100.64887113925134	-95.02033187671572	-100.64887113925136	532.0844091078615	
5.036743858887752	797.1752164095592	138.05969761395144	-63.838959526897185	138.05969761395147	242.50724060439302	-72.93978980317982	-63.83895952689648	-72.93978980317974	512.2243755485085	
5.088669053309275	758.5068439612586	134.13129342301187	-32.269270735902836	134.13129342301187	224.87579871003285	-48.075083987648	-32.269270735902055	-48.07508398764784	491.8188061337984	
5.140594247730798	708.5936166996285	132.44166617743008	-2.0731908008696394	132.4416661774301	215.22780846638648	-26.930812516102442	-2.0731908008688222	-26.930812516102193	471.5247905215283	
5.192519442152321	654.1163883955551	135.04458702441454	25.139249702311062	135.04458702441457	214.96356814354348	-10.16083449784011	25.139249702311954	-10.1608344978398	451.98569916832935	
5.244444636573845	600.5628273547663	143.39805918127314	47.990115703710636	143.3980591812731	224.37882054751537	1.7423148068011436	47.99011570371158	1.7423148068015113	433.65751878604664	
5.296369830995368	551.4475172239572	158.18849750329954	65.38691361652131	158.18849750329952	242.38620698783396	8.383076615721752	65.38691361652229	8.383076615722166	416.681552083332	
5.348295025416891	507.91876029168714	179.08401215640907	76.5775078705403	179.08401215640905	266.5025682553887	9.491233177888411	76.57750787054124	9.491233177888851	400.8512304659037	
5.400220219838414	468.93586190300414	204.83333939448818	81.21065330846116	204.83333939448823	293.0000231280713	4.993354262296549	81.21065330846207	4.993354262296975	385.7069955141578	
