# Stress in units of bar (10^5 Pa)
# z	Sxx	Sxy	Sxz	Syx	Syy	Syz	Szx	Szy	Szz
0.0	-316.2284175182475	-3.741807527128941	-51.936433783826715	-3.741807527130078	134.273144702546	-177.4106904572679	-51.93643378382592	-177.4106904572681	210.94569869130672	
0.0550320024364505	-386.5404053327055	17.145657778881258	-56.890898950978766	17.145657778880235	125.98799841627118	-174.24085777139203	-56.890898950978126	-174.2408577713921	194.39440729537876	
0.110064004872901	-453.90543863254874	31.603965010027693	-59.87584729305179	31.60396501002684	71.4779762477863	-167.57592694858502	-59.87584729305142	-167.575926948585	169.52305979086896	
0.16509600730935148	-505.8419384023856	38.09027025260369	-60.74359878730225	38.090270252603204	-11.589857276365564	-164.0566661320343	-60.74359878730212	-164.05666613203417	141.8584220220498	
0.220128009745802	-524.5775554262949	46.1956982998869	-58.474170767273705	46.19569829988674	-84.95424808359721	-165.1901103586624	-58.474170767273705	-165.19011035866203	119.75249613669126	
0.2751600121822525	-507.8518741997128	61.39452662164763	-51.334255525122934	61.394526621647756	-122.89126306703574	-168.90977361560937	-51.33425552512304	-168.90977361560888	106.66972734472812	
0.33019201461870296	-469.1042762880287	74.12891845046228	-37.260074992837126	74.12891845046241	-128.7228895835184	-172.27474439097665	-37.26007499283736	-172.27474439097617	99.2620961541864	
0.38522401705515347	-423.30776707380136	72.28072048591403	-14.951373304624687	72.280720485914	-126.53073548295265	-172.99172612054957	-14.951373304625136	-172.99172612054917	92.99238180706413	
0.440256019491604	-378.59703787377185	61.405208575924746	14.291990632571943	61.405208575924405	-143.74303572684443	-170.08844794615752	14.291990632571306	-170.08844794615726	86.9127286421655	
0.4952880219280545	-338.6784302745652	63.05500486419643	45.05454327946218	63.055004864195816	-196.76509269839582	-164.17547310312494	45.05454327946155	-164.17547310312457	81.71725298773686	
0.550320024364505	-308.47425579369803	91.14185459051404	68.51121721634247	91.1418545905133	-278.22763828668906	-156.94320708868395	68.51121721634208	-156.94320708868327	75.7884122884139	
0.6053520268009555	-293.9917502481215	137.687857580808	76.51876522124246	137.6878575808071	-355.12910662428453	-149.89601573584025	76.5187652212424	-149.8960157358392	65.93493264985307	
0.6603840292374059	-295.03018775332805	183.45219692225976	66.98681047923168	183.4521969222588	-390.50827387473913	-142.70451851040207	66.98681047923182	-142.7045185104007	51.60806868599539	
0.7154160316738565	-304.23625212669344	213.93536475840676	45.68839305883246	213.93536475840583	-375.2048339045397	-132.07878887805882	45.6883930588326	-132.0787888780573	36.705721637926565	
0.7704480341103069	-316.89653865661285	220.95988773214137	22.313730087343057	220.95988773214057	-336.3364273000069	-113.88126987420263	22.313730087343025	-113.88126987420114	27.432854786506876	
0.8254800365467575	-335.52266964753005	197.40355688738762	4.556449193361081	197.40355688738714	-309.6106115285652	-89.2411430254381	4.5564491933608675	-89.24114302543678	29.878922825530307	
0.880512038983208	-362.9532768441079	141.31162060080038	-4.847653798315633	141.31162060080027	-303.8419208361545	-68.20624229409002	-4.847653798315963	-68.20624229408895	49.60287641998612	
0.9355440414196584	-395.62614822417737	65.74622398666435	-7.7721220705672724	65.74622398666443	-296.0110982324616	-63.43334404843469	-7.772122070567678	-63.43334404843395	90.6938614490732	
0.990576043856109	-419.87467017291385	-1.5754126243455033	-9.328780532427244	-1.5754126243453541	-261.2172461613477	-78.1036582125301	-9.328780532427748	-78.10365821252971	152.2363286740059	
1.0456080462925594	-414.81386637911294	-34.4734636429515	-16.00708051888158	-34.47346364295146	-202.40774580310176	-101.81028628408558	-16.007080518882226	-101.81028628408546	225.60156269826274	
1.10064004872901	-371.068957756587	-26.875052978435562	-31.812144272339825	-26.87505297843562	-145.02863279705764	-120.46499573616094	-31.81214427234061	-120.46499573616092	297.1475181234882	
1.1556720511654603	-311.71779807570545	4.56973035233527	-52.95509244104181	4.569730352335284	-106.34831784243653	-129.4281871694773	-52.95509244104268	-129.4281871694772	353.8968138994833	
1.210704053601911	-278.6049648555147	38.5878732560589	-67.22821175960405	38.587873256059055	-77.1701267632888	-134.13336087872318	-67.22821175960487	-134.1333608787229	386.6684103728679	
1.2657360560383615	-289.6747024616671	67.55242861944282	-63.202982085239356	67.55242861944319	-33.621342603048134	-137.64401257655453	-63.202982085240016	-137.64401257655402	391.2333277266538	
1.3207680584748118	-320.05378854350903	95.53338635182753	-41.86411101563238	95.53338635182804	41.029834099605765	-132.29048138474624	-41.86411101563281	-132.29048138474562	370.68051205101773	
1.3758000609112624	-325.19059207596604	126.37029614013932	-16.978968113797443	126.37029614013996	143.8800426706127	-107.8034801737601	-16.978968113797638	-107.80348017375954	336.4041196904633	
1.430832063347713	-273.5535658748331	159.26735126452593	-4.436613291259778	159.26735126452655	253.21382489005003	-65.53296599319616	-4.436613291259835	-65.53296599319589	304.36007792548577	
1.4858640657841635	-162.19632488996967	190.16335778558945	-13.8230807843497	190.16335778558988	343.8799516062388	-20.569924088004353	-13.823080784349706	-20.56992408800443	289.2301344699791	
1.5408960682206139	-12.311232108643779	213.14806730137985	-46.629090178946065	213.14806730137985	406.27237184530514	9.69543060444893	-46.62909017894606	9.695430604448607	299.12132376036686	
1.5959280706570644	147.7821268954544	226.42907439417033	-94.22422601594651	226.4290743941699	441.5067397040921	18.129100049957252	-94.2242260159465	18.129100049956886	330.2295066519635	
1.650960073093515	295.9101027890913	236.47229556650734	-136.16191164403864	236.47229556650663	439.33493076864795	12.674270548313569	-136.16191164403858	12.674270548313354	365.0108443232374	
1.7059920755299653	414.48559639514207	247.8462910019075	-147.6757368801753	247.8462910019067	382.98556826083063	11.893829178446468	-147.67573688017515	11.89382917844647	379.90360242089105	
1.761024077966416	487.4365913226245	250.33189122939984	-114.86114557138072	250.33189122939893	281.8019751311399	33.0334426932901	-114.8611455713805	33.03344269329024	359.4372884334382	
1.8160560804028665	506.18249399004065	226.5398477863123	-44.23267783322255	226.5398477863113	179.30024960831304	78.43321275090524	-44.23267783322234	78.43321275090543	304.9533355917695	
1.8710880828393168	476.3759605752004	173.8613050203719	39.189505426859846	173.86130502037085	122.99007201868957	129.7167514345095	39.189505426860094	129.71675143450963	232.00982882314287	
1.9261200852757674	421.3881124155473	110.92457446299079	100.1638333071629	110.92457446298977	136.53732044658182	156.1848972056185	100.16383330716322	156.18489720561865	160.5158892274829	
1.981152087712218	380.71936903630564	61.5950878930079	106.80189434321692	61.59508789300706	212.3741127871138	133.69590776697953	106.80189434321734	133.69590776697964	103.52110767723869	
2.0361840901486685	390.3807346029578	38.79547708034603	50.13620811521772	38.795477080345414	316.5978222432139	61.85826128634407	50.1362081152182	61.8582612863442	59.46518189235009	
2.091216092585119	449.1998541404839	43.575679523208606	-43.25123174011908	43.57567952320818	405.34613863034053	-31.434638568238565	-43.25123174011863	-31.434638568238395	13.628962713325066	
2.146248095021569	505.7533383035457	71.18844630272855	-123.01505079032464	71.18844630272818	444.5141079083185	-103.25352322694798	-123.01505079032431	-103.2535232269478	-49.489264607880486	
2.20128009745802	499.66166617684814	113.56741168027435	-147.0792222926508	113.56741168027405	419.7285554336932	-123.1006613919086	-147.0792222926507	-123.10066139190852	-130.3539496432717	
2.2563120998944703	424.1776397467347	157.36925507258212	-108.71980772545388	157.36925507258186	337.8877532392172	-95.44304409764695	-108.71980772545405	-95.44304409764692	-206.9448457285374	
2.3113441023309207	331.49403186985285	181.0998553044393	-38.42756503963585	181.09985530443913	225.18160264720797	-53.07358565562981	-38.427565039636214	-53.07358565562976	-242.75731121020658	
2.3663761047673715	269.73900860542176	160.91567819959147	19.723306235980495	160.91567819959135	116.54378805933135	-24.975252008085647	19.72330623598001	-24.975252008085562	-209.57206276234996	
2.421408107203822	230.89387030004923	88.47498512373318	39.620099060795745	88.47498512373303	39.032334845744124	-13.658571012414079	39.62009906079526	-13.658571012413894	-112.66630411971892	
2.476440109640272	171.28326121646808	-15.085856250092661	28.012212312971926	-15.085856250092831	2.4181460425019594	-3.9317941723773533	28.012212312971545	-3.931794172377126	6.852157972972181	
2.531472112076723	67.273726137065	-109.52016541631562	11.553344694242298	-109.5201654163158	-1.9706737199090014	13.282011358986125	11.55334469424206	13.282011358986326	104.44324853866821	
2.5865041145131733	-63.971677516239424	-164.071586696895	10.31892665026382	-164.07158669689525	2.5848103662357147	28.969088022680182	10.31892665026372	28.969088022680317	170.20190281590945	
2.6415361169496236	-185.35387441308737	-178.16164835670742	23.158730583493877	-178.1616483567076	-4.127816474191675	24.205460679119575	23.15873058349385	24.20546067911959	230.87767997352205	
2.6965681193860744	-263.16910063762697	-175.45119370836983	34.877030115540094	-175.45119370837	-17.08820183394929	-10.064472807147	34.8770301155401	-10.06447280714711	314.95692433067677	
2.751600121822525	-274.58620707007015	-175.2117954157343	33.68346517571843	-175.2117954157344	-9.865409831872583	-57.73399239677493	33.68346517571845	-57.73399239677515	420.319505443526	
2.8066321242589756	-211.11621458938868	-170.08624771715017	21.65133917652164	-170.08624771715017	33.46684285074467	-83.17042592776228	21.651339176521663	-83.17042592776252	514.8598594841962	
2.861664126695426	-89.40673154207728	-137.16903999148502	10.960453189155622	-137.16903999148494	98.1999676876944	-58.0627904136562	10.960453189155665	-58.06279041365643	561.5679627405556	
2.9166961291318763	43.3655732598952	-68.84972124861578	11.392105083762539	-68.84972124861567	151.58867988385217	14.532517603417261	11.392105083762594	14.532517603417084	541.1113406292735	
2.971728131568327	132.10114359564912	18.718878492561572	20.85641625707771	18.718878492561693	166.76542337365072	103.38260144410033	20.85641625707774	103.38260144410023	458.342231466131	
3.0267601340047774	150.82932910255883	107.03944003053957	27.20100418906339	107.0394400305397	136.96024464400818	173.8628330850366	27.20100418906341	173.86283308503653	335.91118968407295	
3.0817921364412277	116.2144572266985	188.06354028260634	18.676003699212046	188.06354028260645	81.7926524331327	207.10290843580668	18.676003699212043	207.10290843580668	202.4405260356068	
3.1368241388776785	65.24739210940315	250.04695400172764	-7.05238327958377	250.04695400172773	36.09813882988149	200.09269318295568	-7.0523832795837755	200.09269318295566	82.93052211981225	
3.191856141314129	26.14792288852368	268.6547969510017	-41.85959343192206	268.65479695100174	15.774361620217007	158.37732865720943	-41.859593431922036	158.37732865720943	-3.9869116445692185	
3.246888143750579	6.353993137247528	229.15637682777088	-72.83846864108855	229.15637682777094	1.7360621403106506	95.10739016108721	-72.83846864108851	95.1073901610872	-47.135020920134174	
3.30192014618703	-7.158714052665459	151.4624647898199	-89.56704016665621	151.46246478982	-26.580484081482894	32.7294174412299	-89.56704016665614	32.7294174412299	-49.18835859541031	
3.3569521486234803	-36.9427306716519	82.38386647830716	-88.78231202393377	82.38386647830727	-55.069858784328446	-4.991529990568193	-88.78231202393367	-4.991529990568221	-29.102112255709944	
3.4119841510599307	-92.02691621097485	61.62221950411191	-74.94646526617885	61.62221950411201	-53.85877039231673	-8.827291597797721	-74.94646526617875	-8.827291597797753	-6.628756765494455	
3.4670161534963815	-153.8798515721162	95.42336330531359	-57.03290368263713	95.42336330531364	-21.791574857666284	8.712591104868823	-57.032903682637	8.712591104868793	18.581937612589584	
3.522048155932832	-193.55276126337566	157.1131754766954	-42.9020641427707	157.11317547669543	9.68214890598972	23.438265811629506	-42.90206414277059	23.438265811629474	64.07545297647042	
3.577080158369282	-199.29862627048846	209.40433069217596	-34.36742851999949	209.4043306921759	12.910172417187063	18.0592031010629	-34.36742851999939	18.05920310106285	136.73592517022132	
3.632112160805733	-178.90589682712658	227.19112334984396	-27.407146646211842	227.19112334984385	-12.49842788880791	-6.2706487027808	-27.407146646211757	-6.27064870278085	213.5634844093337	
3.6871441632421833	-142.1822791803788	203.4787652729973	-18.494969532477672	203.47876527299707	-51.22153455552416	-36.086604783161114	-18.494969532477626	-36.08660478316118	256.1891674365039	
3.7421761656786336	-97.64729982339993	141.99851921225675	-9.335257736935638	141.99851921225644	-91.24757787534939	-62.944955164682426	-9.335257736935615	-62.94495516468244	244.92726220634808	
3.7972081681150844	-62.099257957713064	53.75461550802895	-2.7409180377550886	53.75461550802861	-127.14300214981748	-89.6858078066661	-2.7409180377550886	-89.6858078066661	197.29817067019866	
3.852240170551535	-53.242792173744775	-40.17540887190428	3.1657180595942753	-40.17540887190465	-152.54110038243712	-117.63393132729334	3.165718059594254	-117.63393132729337	154.0513855968064	
3.907272172987985	-67.33139743008678	-112.73591955237667	10.012078486809395	-112.73591955237703	-158.33259467194685	-136.40364179108445	10.012078486809342	-136.40364179108448	148.61844594903835	
3.962304175424436	-71.37999644823867	-142.9564523265967	8.722021757092538	-142.956452326597	-138.6715958690937	-133.14926867331704	8.722021757092467	-133.14926867331707	187.45930326527179	
4.017336177860886	-23.87900071359678	-126.71463915498339	-17.69214318050481	-126.71463915498362	-97.05789275075776	-106.44786495299167	-17.692143180504907	-106.4478649529917	252.75147050620293	
4.072368180297337	94.27666960854617	-80.36400911888819	-75.4566078996251	-80.36400911888833	-49.56426658674718	-65.45649667317399	-75.45660789962521	-65.45649667317403	317.98819703859147	
4.127400182733787	262.5453209009402	-33.45934275874755	-146.32253242518487	-33.45934275874759	-22.03076958655501	-18.66011838116477	-146.322532425185	-18.660118381164786	360.5174499033323	
4.182432185170238	424.6080274967986	-12.377751861839428	-195.8721346179174	-12.377751861839336	-33.84125698269872	32.558984524495095	-195.8721346179175	32.55898452449514	365.03575960047795	
4.2374641876066885	513.9149581078071	-26.03992619687537	-197.59525487209874	-26.03992619687523	-77.75363372686994	90.01691221508081	-197.59525487209885	90.01691221508094	326.7204295239013	
4.292496190043138	493.6231607188094	-63.63331539078072	-151.98666420083617	-63.63331539078058	-120.12769561699514	151.44955111041853	-151.9866642008363	151.44955111041875	260.80132569549465	
4.347528192479589	385.6370703858354	-104.54097087349277	-84.43701760461073	-104.5409708734926	-127.59089041985817	209.39896997747815	-84.43701760461092	209.39896997747843	205.79487379798627	
4.40256019491604	258.44939561359206	-133.82289120713517	-24.183811574796884	-133.82289120713506	-100.13173374494778	255.38086108657592	-24.183811574797115	255.3808610865762	202.93803693489326	
4.45759219735249	173.54657423016562	-149.37927734349654	14.961037101135897	-149.37927734349648	-80.09526713823809	279.51005826733456	14.961037101135604	279.5100582673348	262.79159039156605	
4.512624199788941	138.01277923425152	-153.85003381334084	33.938745422403905	-153.85003381334081	-116.41095010010297	266.5925526749662	33.93874542240358	266.5925526749663	354.9951551588137	
4.5676562022253915	115.9708452047054	-146.97273849063492	34.1962077098611	-146.97273849063504	-206.6546659693516	203.52527451598786	34.196207709860786	203.52527451598792	435.406531435686	
4.622688204661841	82.03368399527844	-132.80157382024444	12.401206361746855	-132.80157382024458	-287.36132979178086	98.53470571297932	12.401206361746574	98.53470571297932	480.24054621844687	
4.677720207098292	47.002247854499814	-123.87118548137435	-28.040822546455786	-123.87118548137448	-297.6444649946683	-12.76612195604589	-28.040822546456013	-12.766121956045904	492.3006094408081	
4.732752209534743	37.858485335593485	-124.28184480707529	-67.54848357319442	-124.28184480707534	-233.57116273129068	-89.89813567660873	-67.54848357319456	-89.89813567660875	483.5520976593242	
4.787784211971193	73.41333782091812	-112.29214489134445	-81.79543528053331	-112.29214489134435	-129.08225991386402	-116.60915763458158	-81.79543528053338	-116.60915763458154	462.6970084566169	
4.842816214407644	157.18455459883606	-54.58486826673726	-63.46764221223534	-54.58486826673712	-10.674971244844798	-104.52760643455946	-63.46764221223527	-104.52760643455943	438.04667702023926	
4.897848216844094	272.09489390289104	55.789003866435586	-28.191243083350404	55.78900386643571	110.72468341645062	-71.86457520114897	-28.191243083350226	-71.86457520114892	421.38609055497966	
4.952880219280544	387.26186567556226	177.53325734133054	0.038147360211411296	177.53325734133065	230.24040367336607	-26.48757424325161	0.038147360211645776	-26.487574243251576	421.3948926477327	
5.007912221716995	487.2736720270768	243.64757571602047	5.190831336031814	243.64757571602058	355.20098200370245	29.085935200873177	5.190831336032079	29.085935200873145	433.68040105950814	
5.062944224153446	582.4708993415704	215.33772903719108	-13.726450418528877	215.33772903719117	499.1917383508769	84.56226415477958	-13.726450418528596	84.56226415477946	441.6056619760639	
5.117976226589896	677.5128248613344	115.3386770708073	-41.168827793287576	115.3386770708074	646.9633147590697	121.34346080508277	-41.168827793287235	121.34346080508251	428.8403568597455	
5.173008229026347	750.7750046930606	1.6796772476030526	-49.921289081566655	1.6796772476030952	742.2393957818547	124.14372599522869	-49.92128908156621	124.14372599522838	389.1273845936032	
5.228040231462797	781.7867919972327	-87.090674836728	-18.09424446486017	-87.09067483672803	742.8249340875911	90.60592989847413	-18.09424446485965	90.60592989847387	323.8958960339179	
5.283072233899247	779.8665887512309	-151.75506838508502	51.272700563983236	-151.75506838508517	685.0807959215633	32.87480573337621	51.2727005639838	32.87480573337608	237.4721120223564	
5.338104236335698	766.1872668623175	-205.79599812724445	130.29755040980965	-205.79599812724462	657.4806381624934	-27.755477896499418	130.29755040981013	-27.75547789649942	140.13882403147076	
5.393136238772149	742.7152868188548	-246.03824046958545	190.5594087059896	-246.0382404695856	697.2331206542815	-72.29343803420099	190.55940870598997	-72.29343803420093	50.1497592309275	
5.4481682412086	695.9099408271641	-254.32508459188392	226.44975342237893	-254.32508459188404	741.7105504868846	-94.67870071929893	226.4497534223791	-94.6787007192989	-16.75431559843534	
5.50320024364505	619.2230585476302	-221.81334889458643	252.65018558677343	-221.8133488945864	696.4487898040525	-100.78917395888885	252.65018558677355	-100.78917395888891	-58.97233420481925	
5.5582322460815	521.0564792691814	-163.1378259212142	281.5907502784122	-163.13782592121404	529.5920998254278	-97.50913204364325	281.59075027841214	-97.50913204364338	-82.40536911348056	
5.613264248517951	419.24219779077106	-106.32129124772507	307.13090929549213	-106.32129124772482	290.1680534443964	-85.67600040608771	307.1309092954922	-85.67600040608787	-82.79557101223031	
5.668296250954401	330.00617990767944	-75.57471035962516	309.8257361335335	-75.57471035962479	57.054272896151545	-64.16370005660816	309.82573613353355	-64.16370005660826	-44.917673984860755	
5.723328253390852	255.98454154040093	-82.3489455992071	276.1770194365301	-82.3489455992067	-110.84809323168903	-37.75421589965134	276.17701943653003	-37.754215899651335	35.252119865870654	
