# Stress in units of bar (10^5 Pa)
# z	Sxx	Sxy	Sxz	Syx	Syy	Syz	Szx	Szy	Szz
0.0	-278.3295100238152	20.395690572578786	-53.31590982540913	20.395690572578268	46.641400793550446	-137.94754346052162	-53.31590982540891	-137.94754346052162	180.6037889139741	
0.0550320024364505	-310.4386648002067	26.19454144960666	-47.97202389609881	26.19454144960614	28.083844766109216	-145.71933751483908	-47.97202389609862	-145.71933751483908	171.82394891411485	
0.110064004872901	-338.1858778568756	32.971447118786735	-42.36440129346198	32.97144711878625	4.876785280437279	-151.65606830350535	-42.364401293461825	-151.65606830350526	161.49993347806287	
0.16509600730935148	-360.26438795523944	40.65523814427418	-36.2043157212576	40.655238144273696	-21.924015027455592	-155.82354075651105	-36.2043157212575	-155.82354075651088	150.22231060478157	
0.220128009745802	-375.93814345389796	49.184514191765075	-29.329913566683274	49.18451419176458	-51.35089838054552	-158.31242993854573	-29.32991356668324	-158.31242993854548	138.56968428013735	
0.2751600121822525	-385.12460511647345	58.38552932854262	-21.7690844740088	58.38552932854215	-82.34968616060276	-159.22408771567362	-21.769084474008825	-159.2240877156733	127.07253227455833	
0.33019201461870296	-388.35774393242104	68.1138464262842	-13.745255254096438	68.11384642628376	-113.84193589410692	-158.66516861056252	-13.74525525409652	-158.6651686105621	116.21543854062261	
0.38522401705515347	-386.6930636426152	78.04971733255576	-5.65953405504772	78.04971733255533	-144.79837857412332	-156.7484414956825	-5.6595340550478515	-156.74844149568202	106.4260952438461	
0.440256019491604	-381.5280583930208	87.82423090008352	1.9602803730544247	87.82423090008308	-174.14512104378355	-153.59449747072762	1.9602803730542573	-153.59449747072705	98.12939964119987	
0.4952880219280545	-374.41873030299536	96.89375405848726	8.545738327740121	96.89375405848679	-200.82304206052362	-149.35244815879824	8.54573832773992	-149.35244815879759	91.76691778749787	
0.550320024364505	-366.83986260987507	104.61618271619841	13.574183936931568	104.61618271619794	-223.70790828851494	-144.2226807967547	13.574183936931343	-144.222680796754	87.82906831738116	
0.6053520268009555	-359.8940846914902	110.36969129273517	16.655020189722066	110.36969129273471	-241.83787019273217	-138.46164438812303	16.655020189721824	-138.46164438812224	86.84632812008104	
0.6603840292374059	-354.34615172690184	113.53701957583641	17.593856381559245	113.53701957583593	-254.28940667686615	-132.38715653622398	17.593856381558986	-132.38715653622316	89.34147517696961	
0.7154160316738565	-350.44776152322095	113.82293241715409	16.400391649625636	113.82293241715367	-260.36266498370077	-126.3564342115077	16.400391649625355	-126.35643421150687	95.77398695350776	
0.7704480341103069	-347.890357691696	111.17442713429473	13.279066885548316	111.17442713429435	-259.51684805147545	-120.71047708065322	13.279066885548016	-120.71047708065237	106.43018082990653	
0.8254800365467575	-346.1097156419291	106.04842211796651	8.591435631792326	106.04842211796617	-251.59970190127905	-115.72950307675802	8.591435631792002	-115.72950307675724	121.3163097901373	
0.880512038983208	-344.10388038402004	99.26966001940863	2.793886958796889	99.26966001940835	-236.53522044647912	-111.57142609129681	2.793886958796533	-111.57142609129608	140.09654966243667	
0.9355440414196584	-340.80010626969397	92.00559737999534	-3.6381716099508834	92.00559737999512	-214.57646840147436	-108.21611090359526	-3.6381716099512746	-108.21611090359457	162.04323545094942	
0.990576043856109	-335.0179264418902	85.57673968455705	-10.266072829518691	85.57673968455694	-186.09636933924094	-105.44303548164679	-10.266072829519107	-105.44303548164616	186.08778576977485	
1.0456080462925594	-325.55346006418847	81.23107679801977	-16.72564589714293	81.23107679801974	-151.7224791846083	-102.85589904923707	-16.725645897143373	-102.8558990492365	210.91855868408496	
1.10064004872901	-311.344381772372	79.99087136079406	-22.763238573724617	79.99087136079407	-112.17603754200942	-99.92190990812075	-22.763238573725065	-99.92190990812028	235.13176294991467	
1.1556720511654603	-291.41123804582355	82.41568192184636	-28.2501422169087	82.41568192184644	-68.44848195523534	-96.04793948549104	-28.25014221690914	-96.04793948549063	257.42533090867875	
1.210704053601911	-264.886113829476	88.6328621904913	-33.14516234844261	88.63286219049141	-21.757551919232966	-90.69606019703107	-33.14516234844304	-90.69606019703072	276.73067371616725	
1.2657360560383615	-231.15308892230883	98.22470397290061	-37.4803510671339	98.22470397290074	26.394786534650187	-83.4833762530583	-37.48035106713429	-83.48337625305798	292.3034273672395	
1.3207680584748118	-189.84540382018594	110.38463044328313	-41.299655158466706	110.38463044328329	74.29896267936275	-74.22341052095717	-41.29965515846703	-74.22341052095693	303.7634799673836	
1.3758000609112624	-141.24062635984453	123.97953560799445	-44.59652736662204	123.97953560799456	120.04030783655608	-62.9812125227631	-44.59652736662233	-62.981212522762895	310.9993906881127	
1.430832063347713	-86.07096300487812	137.73570943059457	-47.27190795039927	137.73570943059462	161.773785678126	-50.067533031672454	-47.27190795039948	-50.06753303167228	314.03557904365385	
1.4858640657841635	-25.794401808773763	150.38669708544995	-49.13228349060381	150.38669708544995	197.91617293744702	-36.00976093583905	-49.13228349060394	-36.00976093583891	312.9317517103108	
1.5408960682206139	37.516877136855044	160.7884281377908	-49.929808967398415	160.78842813779067	227.3519388687652	-21.500955813527156	-49.9298089673985	-21.500955813527042	307.66174891138047	
1.5959280706570644	101.36034995615486	168.09343199091964	-49.44917953756361	168.0934319909194	249.60884449824408	-7.3486346096835815	-49.44917953756362	-7.348634609683488	298.0820958338964	
1.650960073093515	163.04100371732545	171.73560813035314	-47.602355451848766	171.73560813035283	264.9642123965075	5.588974271270308	-47.60235545184873	5.588974271270395	283.9732256448715	
1.7059920755299653	219.9689500889266	171.5727056573618	-44.51045509636091	171.57270565736138	274.3201014476442	16.476249414218447	-44.51045509636083	16.476249414218525	265.13104639305686	
1.761024077966416	269.9432824947057	167.8322185365779	-40.52598421204522	167.8322185365774	279.0289537270918	24.584278748245634	-40.5259842120451	24.584278748245715	241.5228432885963	
1.8160560804028665	311.41631272684873	161.1147993092307	-36.1889071488753	161.11479930923016	280.4534461790191	29.380785123442628	-36.18890714887514	29.38078512344272	213.44171818539027	
1.8710880828393168	343.37056448583763	152.17008243468752	-32.09054190341722	152.17008243468695	279.7893005290651	30.612397069667033	-32.09054190341705	30.61239706966714	181.59999533948064	
1.9261200852757674	365.4227324523247	141.83589994194858	-28.7474875414229	141.83589994194804	277.66921033127505	28.37500788271895	-28.74748754142272	28.375007882719057	147.21126882618262	
1.981152087712218	377.60361882306023	130.76648830623284	-26.42713801870648	130.7664883062323	274.1636084610067	23.15342197431285	-26.427138018706316	23.153421974312966	111.95796893346221	
2.0361840901486685	380.15982990080397	119.4191155232467	-25.0853735392451	119.41911552324615	268.6802684047727	15.765591912845773	-25.08537353924497	15.765591912845903	77.92248555891956	
2.091216092585119	373.5264701133508	107.83123978108378	-24.384615914650023	107.8312397810833	260.46657202973694	7.268215880542989	-24.3846159146499	7.268215880543128	47.42278966946903	
2.146248095021569	358.06333176603545	95.70803511613397	-23.778161871728283	95.70803511613352	248.65612136763193	-1.2162674450674587	-23.778161871728212	-1.2162674450673236	22.801436505084713	
2.20128009745802	334.4171727142291	82.53300656128938	-22.691758136696784	82.53300656128899	232.78168875297024	-8.6964995137444	-22.69175813669674	-8.696499513744264	6.2081847039625115	
2.2563120998944703	303.2841762676776	67.78303145297856	-20.672364996206557	67.78303145297821	212.9479595810968	-14.428421624979059	-20.672364996206575	-14.428421624978922	-0.6562918313598303	
2.3113441023309207	265.7750835085802	51.10946089535489	-17.50442638657704	51.10946089535459	189.93023162011892	-18.014142511460683	-17.50442638657711	-18.01414251146057	3.2110162199526684	
2.3663761047673715	223.46058308780164	32.65018435800623	-13.261940319642072	32.65018435800597	165.12607749466085	-19.397439654851077	-13.261940319642164	-19.397439654850952	17.944433243031263	
2.421408107203822	178.36775944446129	13.021345783491746	-8.261030707684327	13.021345783491526	140.20306372468687	-18.763159235516895	-8.261030707684444	-18.763159235516795	42.7387491946474	
2.476440109640272	132.92705775538616	-6.602138291574363	-2.982290515727197	-6.6021382915745335	116.95563823277351	-16.408784355968166	-2.982290515727318	-16.408784355968088	75.84305145981726	
2.531472112076723	89.76131350225815	-24.621794845067356	2.0566801446643934	-24.621794845067505	96.89893822553603	-12.622895357285584	2.0566801446642717	-12.622895357285515	114.67336304565575	
2.5865041145131733	51.36620825937253	-39.27613413796368	6.385641935183379	-39.276134137963794	81.04515066535765	-7.567204065878238	6.385641935183259	-7.567204065878206	156.02616930415294	
2.6415361169496236	19.887688352744235	-48.86130895844693	9.63234978677961	-48.86130895844702	69.80635514106001	-1.2464007659252268	9.6323497867795	-1.246400765925209	196.38030433572013	
2.6965681193860744	-3.366458470296976	-52.105719818843234	11.551132209284862	-52.10571981884329	62.92389651142757	6.3994666673538845	11.55113220928478	6.399466667353877	232.2346581208581	
2.751600121822525	-17.97520952775134	-48.325410766004154	12.002886853455413	-48.32541076600416	59.59386221752624	15.378199142631605	12.002886853455355	15.378199142631571	260.4967790414481	
2.8066321242589756	-24.565967908579168	-37.55015401953236	10.947471787402055	-37.55015401953233	58.56107155187712	25.53581511970635	10.947471787402009	25.535815119706307	278.80834045985256	
2.861664126695426	-24.79998171350385	-20.645359166238066	8.414008425732394	-20.64535916623801	58.52685641839183	36.44868057286726	8.414008425732371	36.4486805728672	285.8404066952704	
2.9166961291318763	-20.81093724777581	0.948019925726193	4.493911123068358	0.9480199257262569	58.17906259423451	47.38715765680958	4.493911123068345	47.3871576568095	281.4586701302412	
2.971728131568327	-15.177002389422398	25.308407421090806	-0.6426914901603826	25.308407421090905	56.470980136201774	57.40212716484743	-0.642691490160388	57.40212716484735	266.7318752228084	
3.0267601340047774	-10.306528996230117	50.368174593820136	-6.734483327636848	50.368174593820235	52.768425953368556	65.46584829435344	-6.7344833276368306	65.46584829435336	243.8131465329567	
3.0817921364412277	-8.051329734916091	74.16342719388993	-13.424652835403585	74.16342719389002	46.90200725842553	70.6600994287329	-13.424652835403556	70.66009942873282	215.64951750451755	
3.1368241388776785	-9.671298472052769	95.07812849464624	-20.270518820226332	95.07812849464634	39.00603948072472	72.34941446310248	-20.270518820226297	72.34941446310242	185.5744379510804	
3.191856141314129	-15.506996421448136	112.06993961085254	-26.764112077931046	112.06993961085266	29.56681630785249	70.2882166465672	-26.764112077931	70.28821664656715	156.87474574788163	
3.246888143750579	-25.133627029071135	124.5625741988953	-32.40778243545287	124.5625741988954	19.183624489734	64.63039557708598	-32.40778243545283	64.63039557708593	132.36757864566107	
3.30192014618703	-37.57923935242599	132.52221240117123	-36.79543481015248	132.52221240117132	8.382604768150586	55.87365319352602	-36.79543481015243	55.87365319352598	114.10054184639411	
3.3569521486234803	-51.282157985918005	136.1555229238618	-39.656133619704455	136.1555229238619	-2.4042085198468612	44.71961820896408	-39.6561336197044	44.71961820896403	103.1892410249284	
3.4119841510599307	-64.56810418804191	135.80616443028268	-40.90919411788951	135.80616443028268	-12.922806096019485	31.962395057802627	-40.909194117889456	31.962395057802603	99.77483765877837	
3.4670161534963815	-75.78103111027883	131.7537472118378	-40.699965402200135	131.75374721183778	-23.147231329198874	18.377210600549414	-40.69996540220008	18.37721060054937	103.1768942764285	
3.522048155932832	-83.39809758922001	124.19747660723235	-39.37331764646254	124.19747660723229	-33.114222593494006	4.670790915138031	-39.37331764646248	4.670790915137994	112.14268649852082	
3.577080158369282	-86.24377302710579	113.29531522982604	-37.45655980504252	113.29531522982597	-42.813986289115164	-8.52478359900035	-37.456559805042474	-8.52478359900039	125.11958162637104	
3.632112160805733	-83.31390622304261	99.21172564992618	-35.588491767400086	99.21172564992608	-52.17948344842036	-20.56929841325414	-35.58849176740004	-20.56929841325417	140.5750825567128	
3.6871441632421833	-74.08131276573206	82.29451584680112	-34.42279486872174	82.29451584680098	-61.01895395152852	-30.782753069263748	-34.4227948687217	-30.78275306926379	157.19468072892312	
3.7421761656786336	-58.37239195930352	63.15858879699618	-34.52795368802012	63.15858879699603	-69.10170170516355	-38.42590670755014	-34.5279536880201	-38.42590670755017	173.98582634322156	
3.7972081681150844	-36.29548116852699	42.69216901190039	-36.30251529145919	42.69216901190021	-76.06398383092134	-42.73131783519521	-36.30251529145918	-42.731317835195235	190.32586600638462	
3.852240170551535	-8.402205970694318	21.885299814015745	-39.8857191824101	21.885299814015596	-81.68189447755942	-42.97982131808864	-39.885719182410114	-42.97982131808865	205.87768069815792	
3.907272172987985	24.199204707467246	1.8389346325202212	-45.093743001526434	1.8389346325201075	-85.97982201466925	-38.623788319834475	-45.093743001526455	-38.62378831983448	220.52291413699055	
3.962304175424436	60.107642002312346	-16.65180965645982	-51.42739924946686	-16.65180965645996	-89.05516669581465	-29.4250568817573	-51.42739924946688	-29.425056881757275	234.24920380565786	
4.017336177860886	97.25056272826059	-33.02981290036315	-58.12099002409694	-33.02981290036326	-91.39615148465218	-15.592418903587802	-58.120990024097004	-15.59241890358777	247.09481372059258	
4.072368180297337	133.40681758822294	-47.142954612475094	-64.25484926141232	-47.142954612475194	-93.43267138892836	2.1621590368352224	-64.25484926141239	2.1621590368352575	259.14164123736276	
4.127400182733787	166.1240293208813	-59.047293425798244	-68.9273898918574	-59.0472934257983	-95.75618805563013	22.636655407363648	-68.92738989185749	22.63665540736372	270.5704380419416	
4.182432185170238	193.19800986364297	-69.07239177299952	-71.39610394668827	-69.07239177299957	-98.83676126250741	44.186181975359546	-71.39610394668837	44.1861819753596	281.66958779567017	
4.2374641876066885	213.07027158529127	-77.45485985623192	-71.27660287512062	-77.45485985623193	-102.76452967023303	64.88709510956917	-71.27660287512074	64.88709510956926	292.8273897569972	
4.292496190043138	225.00773274154594	-84.36245305107136	-68.5925911490009	-84.36245305107138	-107.26118561542586	82.78998743984374	-68.59259114900104	82.78998743984383	304.48250139282953	
4.347528192479589	229.3422538178014	-89.68729739387294	-63.778045075159675	-89.68729739387294	-111.61763457196332	96.16134399764861	-63.77804507515982	96.16134399764871	317.00477842736655	
4.40256019491604	227.6209274645326	-93.02758972731385	-57.56215950163764	-93.02758972731385	-114.60388348220216	103.74698829316596	-57.56215950163778	103.74698829316605	330.5820174170788	
4.45759219735249	222.13736732410342	-93.87738606794635	-50.801324512228604	-93.87738606794636	-114.60339088296135	104.99329826072352	-50.80132451222873	104.9932982607236	345.07105538425844	
4.512624199788941	215.95024560221069	-91.69589629899264	-44.293230660347625	-91.69589629899261	-109.67355670548517	100.13073739115202	-44.29323066034775	100.13073739115211	359.9897625688469	
4.5676562022253915	212.1953428336125	-86.03740006710592	-38.61401871593322	-86.03740006710592	-97.88357283721604	90.16892391632146	-38.61401871593335	90.16892391632155	374.56520744823	
4.622688204661841	213.81860922297898	-76.8694108641358	-34.01089556290847	-76.86941086413579	-77.4339533188499	76.74396013939987	-34.01089556290859	76.74396013939993	387.8200686515765	
4.677720207098292	223.12336726333413	-64.52452985158479	-30.39364192638481	-64.52452985158479	-47.02831480774893	61.81802476065955	-30.39364192638488	61.81802476065958	398.70812016639957	
4.732752209534743	241.46536787649336	-49.947387641444706	-27.37017470195755	-49.947387641444685	-6.126678341110297	47.33771127841681	-27.370174701957573	47.33771127841682	406.2430138196122	
4.787784211971193	269.1971200280729	-34.52977883806688	-24.340385961706453	-34.52977883806687	44.87591437376162	34.912033209271115	-24.340385961706446	34.91203320927113	409.591150116091	
4.842816214407644	305.49849442155335	-20.055037611015358	-20.605420854408095	-20.055037611015308	104.54504389028632	25.532823841728632	-20.60542085440804	25.532823841728607	408.1084708483317	
4.897848216844094	348.600449243906	-8.434171216953722	-15.45235983637809	-8.434171216953676	170.51419955587957	19.44217491516342	-15.452359836377989	19.44217491516339	401.3531149388051	
4.952880219280544	395.8967992543049	-1.3943459970122376	-8.243074421216363	-1.3943459970121808	239.5740803572004	16.188719734230908	-8.24307442121621	16.188719734230865	389.0597496037391	
5.007912221716995	444.28705331299415	-0.18794228337891283	1.5480956917285469	-0.18794228337890218	308.03386258827135	14.780923156826985	1.5480956917287334	14.780923156826926	371.1443197327778	
5.062944224153446	490.3533820004757	-5.388574039545773	14.273964581852802	-5.388574039545759	371.9511147367396	13.94844368580455	14.273964581853043	13.948443685804495	347.7844466620235	
5.117976226589896	530.9459355199463	-16.64094637626282	30.05563323632895	-16.640946376262796	427.54624611942756	12.46333153821275	30.055633236329214	12.463331538212675	319.47799151490864	
5.173008229026347	563.0888289486837	-32.85313009723407	48.727419102892995	-32.853130097234015	471.47990433505714	9.413864218470422	48.72741910289325	9.41386421847034	287.1265071802535	
5.228040231462797	584.6322194721524	-52.28527970352509	69.8010849621451	-52.28527970352505	501.0428066206081	4.359896265943151	69.80108496214538	4.359896265943071	252.08532558370894	
5.283072233899247	594.0667559244644	-72.89172801559862	92.42972108688383	-72.89172801559862	514.4230177742754	-2.618579555496085	92.4297210868841	-2.618579555496165	216.13394221465666	
5.338104236335698	590.8538259855407	-92.66866930775109	115.4565376388894	-92.66866930775107	510.83883038350245	-10.985368896460049	115.45653763888961	-10.98536889646012	181.35580395952513	
5.393136238772149	575.3436440720666	-110.02016047061687	137.51059194759338	-110.02016047061687	490.6496705408639	-19.928809177986974	137.51059194759364	-19.928809177987056	149.9489236113644	
5.4481682412086	548.7359225860098	-123.87807729010389	157.15374200139584	-123.87807729010389	455.3318210412833	-28.56447866095001	157.153742001396	-28.56447866095008	123.95885731960368	
5.50320024364505	512.962346237215	-133.85399547121438	173.05702844168843	-133.85399547121432	407.3899349035331	-36.12801927572876	173.0570284416886	-36.128019275728825	105.0003759512248	
5.5582322460815	470.55574138504926	-140.13567879941314	184.18602222314362	-140.13567879941306	350.298454493449	-42.124828211511115	184.18602222314374	-42.12482821151117	94.01373594944882	
5.613264248517951	424.39608008193994	-143.32694846486413	189.9262186810007	-143.32694846486402	287.9918490256362	-46.39158810739273	189.9262186810008	-46.39158810739279	91.10933608435717	
5.668296250954401	377.49863906845013	-144.18903120291577	190.1643954132453	-144.18903120291566	224.58388733644804	-49.07335724433504	190.16439541324527	-49.07335724433509	95.55507901681493	
5.723328253390852	332.81261870969666	-143.5165978602692	185.2931109436557	-143.51659786026903	163.89075981948696	-50.50970950609816	185.29311094365568	-50.509709506098204	105.86084502270712	
