# Stress in units of bar (10^5 Pa)
# z	Sxx	Sxy	Sxz	Syx	Syy	Syz	Szx	Szy	Szz
0.0	-305.09103823161365	7.453518787293461	-51.06322385704958	7.453518787292552	98.0021947126817	-158.05213740720205	-51.063223857049095	-158.05213740720222	200.53408056112335	
0.0550320024364505	-363.6249713269571	16.054893766704524	-52.880099127443316	16.0548937667037	71.49915765227803	-164.325482900847	-52.88009912744289	-164.32548290084708	184.55075718761123	
0.110064004872901	-412.45172728876446	26.348814561649675	-53.57444188823912	26.34881456164902	36.24687633066175	-167.11919748304584	-53.57444188823879	-167.1191974830458	166.72887922413065	
0.16509600730935148	-446.49962046778444	36.94835248644937	-51.807707386662045	36.94835248644889	-4.825254053466459	-168.03118398178188	-51.80770738666186	-168.03118398178174	148.5650851401367	
0.220128009745802	-462.74659369021913	46.77385685511102	-46.50840521042783	46.77385685511071	-46.44130928670498	-168.33909404622705	-46.508405210427796	-168.3390940462268	131.6414225152501	
0.2751600121822525	-461.152587571905	55.38395844641312	-36.96359447316379	55.38395844641289	-84.45334394908834	-168.51977559265674	-36.963594473163894	-168.5197755926564	117.0916819338603	
0.33019201461870296	-444.57689180455833	62.90599313362786	-23.103153307722092	62.905993133627675	-118.16812574057008	-168.32162920733361	-23.103153307722334	-168.32162920733322	105.23690833419937	
0.38522401705515347	-418.2256002523803	70.58911604044079	-5.833571830614826	70.58911604044056	-150.56733859342654	-167.15654226665518	-5.83357183061516	-167.15654226665475	95.61319814374278	
0.440256019491604	-388.06488158029	80.52306094278151	12.788640298510774	80.52306094278117	-185.5838160732097	-164.51259792017822	12.788640298510396	-164.5125979201777	87.30362754031472	
0.4952880219280545	-359.61270753988106	94.90340686506212	29.811397676206212	94.90340686506164	-224.5394593481938	-160.11528172114103	29.81139767620585	-160.11528172114038	79.34482007480815	
0.550320024364505	-337.00044154052455	114.19478645129882	42.15340185899743	114.1947864512982	-264.4733935983904	-153.85957158777842	42.15340185899713	-153.8595715877776	71.14752562789614	
0.6053520268009555	-322.7280365891538	136.0494939089919	47.63449684768305	136.0494939089912	-299.1655385707932	-145.66309624476165	47.63449684768284	-145.66309624476065	62.851441216307144	
0.6603840292374059	-317.4809717872784	155.4394848060171	45.796904453511715	155.4394848060164	-322.5156200874065	-135.47939808188778	45.79690445351157	-135.4793980818867	55.64581075174685	
0.7154160316738565	-320.69269566628765	166.17439667260322	38.016038493829804	166.17439667260248	-331.74697583263344	-123.58765327202076	38.01603849382968	-123.5876532720196	51.82158647839402	
0.7704480341103069	-330.70994525346146	163.38713565172702	26.853294231711622	163.38713565172645	-327.90601990377036	-111.03646912487346	26.853294231711477	-111.03646912487226	54.46308954540193	
0.8254800365467575	-344.9686846578212	145.50576996305247	14.929959509425316	145.50576996305207	-314.2572462967315	-99.79414878033207	14.929959509425107	-99.79414878033097	66.67688711907542	
0.880512038983208	-359.8734833733725	115.53808278658792	3.907381963184225	115.5380827865877	-293.4508167307355	-92.24148280390881	3.9073819631839144	-92.24148280390784	90.58360923575017	
0.9355440414196584	-371.1058122759887	80.29654071500238	-5.885335977361404	80.2965407150023	-266.61195840147917	-90.13924111820131	-5.885335977361819	-90.13924111820059	126.31900546969027	
0.990576043856109	-374.66492495593076	48.376636318803286	-15.04462459311709	48.37663631880329	-233.79312062221453	-93.67944672541188	-15.044624593117605	-93.67944672541134	171.43789464783043	
1.0456080462925594	-368.65744423976264	27.11927377767232	-24.142430183962865	27.119273777672376	-195.43860187034412	-101.24531392714091	-24.14243018396347	-101.24531392714053	221.03060886386882	
1.10064004872901	-354.60948134379765	20.270363726160923	-32.842563122364716	20.27036372616101	-152.42765964903845	-110.02277254266008	-32.84256312236537	-110.02277254265974	268.6562776328145	
1.1556720511654603	-336.63296611876046	27.424208948741004	-39.74813597658453	27.424208948741203	-104.98812164678645	-116.93706718906071	-39.7481359765852	-116.93706718906043	307.9271406941522	
1.210704053601911	-318.33913465823616	45.29796153189318	-43.17709355316077	45.297961531893435	-51.91986466636645	-119.3042839938486	-43.17709355316141	-119.30428399384829	334.2481877187521	
1.2657360560383615	-299.6355095736147	69.76285070868443	-42.51425608262066	69.7628507086848	8.619307517784264	-115.16628426577552	-42.51425608262123	-115.16628426577515	346.15755750304913	
1.3207680584748118	-275.0313009915926	97.36509263640939	-39.22589301439622	97.36509263640978	77.29095407048926	-103.5988824870433	-39.22589301439665	-103.59888248704294	345.8042010294892	
1.3758000609112624	-235.85812950338547	125.62972088533276	-36.709794739983366	125.62972088533319	151.38729196430455	-85.19232867658692	-36.70979473998367	-85.19232867658664	338.22732342645924	
1.430832063347713	-174.71148027961237	152.7660275246726	-38.80650289959739	152.76602752467292	224.68945113094384	-62.27214365851121	-38.80650289959759	-62.27214365851103	329.5983388323977	
1.4858640657841635	-89.42156585943985	177.26254140322442	-47.61434460821523	177.26254140322465	288.5473489156151	-38.304230315107475	-47.61434460821532	-38.30423031510742	324.87204634904936	
1.5408960682206139	14.943334895144375	197.71307229321522	-61.786635932551945	197.71307229321525	334.36800244477956	-16.36953011616364	-61.786635932551945	-16.36953011616368	325.7196610995719	
1.5959280706570644	127.4521854390597	212.7476806610996	-76.30751161872709	212.7476806610994	355.8293136528775	2.41026154549688	-76.30751161872705	2.4102615454968026	329.72652684709374	
1.650960073093515	234.5648079963031	220.81318986191326	-84.14859146659563	220.8131898619128	351.12352006790996	19.276574975488746	-84.14859146659555	19.276574975488675	331.2814617424452	
1.7059920755299653	323.7366879924789	220.17760855802777	-79.3837975934606	220.17760855802715	324.50022189807646	36.515790507548004	-79.38379759346046	36.515790507547976	323.957117546841	
1.761024077966416	387.0253392476243	209.37008642447944	-60.42592784219427	209.37008642447864	286.3367931314532	55.076723572995796	-60.42592784219408	55.076723572995824	303.30468719588157	
1.8160560804028665	422.75252547852676	188.4929012868066	-31.733852546141705	188.49290128680576	250.84587473503444	72.6243438609045	-31.73385254614147	72.6243438609046	268.5632420371563	
1.8710880828393168	436.0927890772871	160.21238300330967	-2.7818985778440037	160.21238300330882	231.25737051019897	83.63586721201335	-2.7818985778437266	83.6358672120135	222.4810874047178	
1.9261200852757674	436.75860261942137	129.99321510105943	15.679586169301345	129.99321510105858	234.843955069304	81.91985950011421	15.679586169301672	81.91985950011437	169.49587974028367	
1.981152087712218	434.59672242058764	104.45258498766924	16.56130684580883	104.45258498766852	259.44413667745584	64.32905052539745	16.561306845809156	64.3290505253976	113.49982814362177	
2.0361840901486685	434.9576155214152	89.17015675324942	0.11612766868218927	89.17015675324878	294.3536404986995	33.395721764585495	0.11612766868251967	33.39572176458566	56.69354850661032	
2.091216092585119	436.3036124921501	86.40688785561733	-25.819868774064755	86.4068878556168	324.3193514274019	-2.949990194352008	-25.819868774064485	-2.9499901943518445	0.35336806684855304	
2.146248095021569	431.90477865627656	94.01813143481371	-49.511569079165355	94.0181314348133	335.39188740021865	-34.66849674748411	-49.511569079165184	-34.66849674748395	-53.10136357777828	
2.20128009745802	414.5711766028659	105.74874245842562	-61.03241135634697	105.74874245842526	320.04665653564604	-54.06292535413861	-61.03241135634694	-54.062925354138464	-98.34029986800896	
2.2563120998944703	380.9349692588776	112.88149289661976	-56.8029878403718	112.88149289661948	279.1949571722562	-58.71601692207946	-56.802987840371905	-58.71601692207932	-127.4284296755526	
2.3113441023309207	332.26879468469957	107.05998560390829	-40.39112571057936	107.05998560390806	221.24852523268316	-51.3831772459767	-40.391125710579594	-51.383177245976555	-132.5848638236746	
2.3663761047673715	271.8893996608294	83.39322091725086	-19.48353536431997	83.39322091725062	158.2117926068959	-37.48546160340666	-19.48353536432026	-37.48546160340652	-109.87708622015622	
2.421408107203822	202.28269132164007	42.703513202475605	-1.2356438913742167	42.7035132024754	101.29312051076111	-22.335854664415617	-1.23564389137454	-22.335854664415454	-61.40796331785852	
2.476440109640272	125.06624158291434	-8.42879463564546	10.91832717258735	-8.428794635645644	57.414559392605305	-9.817287893075179	10.918327172587059	-9.817287893075038	5.707325591661068	
2.531472112076723	43.36849507929402	-60.30919907173944	17.46173267029465	-60.30919907173964	28.55497921611746	-2.4395587934731773	17.461732670294428	-2.439558793473055	82.82612377764401	
2.5865041145131733	-35.65082272559401	-103.80781299698914	20.702161405549397	-103.80781299698933	13.335874608881966	-1.5414316722556585	20.702161405549234	-1.5414316722555874	163.13083109378965	
2.6415361169496236	-100.63437001621776	-133.04587147533425	22.4772737247294	-133.04587147533437	9.7260854186746	-6.620789836689255	22.477273724729308	-6.620789836689244	242.38418942570786	
2.6965681193860744	-139.84012303325378	-145.71819184480557	23.310407792615344	-145.71819184480566	16.325522723927698	-14.28380137379901	23.310407792615297	-14.283801373799074	316.8752111923323	
2.751600121822525	-145.73933781219063	-141.5206322889968	23.026949950280187	-141.5206322889968	32.17842266212764	-18.351374859786688	23.026949950280173	-18.3513748597868	380.7954832684324	
2.8066321242589756	-119.14190067621453	-120.7073767117125	21.664955780001595	-120.70737671171247	54.60831867843882	-12.044465957701327	21.66495578000161	-12.04446595770149	425.6589344352749	
2.861664126695426	-69.94400786361052	-83.96479821613868	19.647453643466527	-83.96479821613862	78.29342669005361	8.55036595071794	19.64745364346655	8.550365950717769	442.64209061172824	
2.9166961291318763	-13.691520491968504	-33.60340588523791	17.114987341814036	-33.603405885237805	96.23952140969544	41.778634658699985	17.114987341814057	41.77863465869986	426.4231497838239	
2.971728131568327	33.75933104511449	25.297106795614674	13.260764767027435	25.297106795614777	102.64618938067734	80.35195233626008	13.260764767027457	80.35195233625998	378.1091076620102	
3.0267601340047774	61.982259613621466	84.8367706106118	6.501812015338324	84.83677061061194	95.58050864320955	114.10880099320403	6.501812015338345	114.10880099320396	305.7251773689851	
3.0817921364412277	68.57957144421223	135.75363313951956	-4.440987982811375	135.75363313951968	77.38570042907558	134.06345994027757	-4.44098798281135	134.06345994027754	222.05404015708112	
3.1368241388776785	57.477918778843616	169.90646573345768	-19.353982864956503	169.9064657334578	53.12983447177615	135.70453217527634	-19.35398286495647	135.7045321752763	141.03321547068768	
3.191856141314129	35.26036728938661	183.08419028017533	-36.096501531220405	183.08419028017545	28.015715285493798	120.31974073142781	-36.09650153122038	120.3197407314278	74.25837702657819	
3.246888143750579	7.093429813891021	177.2677832882876	-51.28435373439011	177.2677832882877	5.960664053280539	94.0009761602183	-51.284353734390066	94.00097616021833	28.670220486919415	
3.30192014618703	-24.46150754835736	160.3172747901612	-61.70783580452619	160.3172747901613	-10.496662989814354	64.93170734343197	-61.70783580452613	64.93170734343198	6.148305149823216	
3.3569521486234803	-58.054285238169	143.14975848696255	-65.63657779298804	143.14975848696267	-20.06697449907918	40.06134574893924	-65.63657779298796	40.061345748939225	4.830624552401959	
3.4119841510599307	-91.62629188905215	134.7150328125419	-63.31092867047906	134.71503281254195	-23.109690614424522	22.630803328171822	-63.31092867047897	22.63080332817182	21.029037775840802	
3.4670161534963815	-121.12427894608163	137.96537558040708	-56.45569317708267	137.9653755804071	-22.324338985101065	11.585133429992108	-56.45569317708257	11.585133429992089	50.46269413485561	
3.522048155932832	-141.6537675254396	148.54311049255853	-47.272957099706275	148.5431104925585	-22.271996722978233	3.022711410606	-47.27295709970618	3.0227114106059645	88.15908003600481	
3.577080158369282	-149.63359654998106	157.23686668033713	-37.5509365064738	157.23686668033704	-27.53388241672745	-7.26831316189857	-37.55093650647372	-7.268313161898616	127.82199527094677	
3.632112160805733	-144.65842493313647	154.36570838920028	-28.30574371372168	154.36570838920017	-40.47985734758932	-21.72118110685586	-28.30574371372162	-21.7211811068559	162.2735793130333	
3.6871441632421833	-129.60501934151188	133.99683272236118	-20.03773653383962	133.99683272236095	-60.061037244758104	-40.246578524781164	-20.037736533839567	-40.24657852478122	185.72810432735645	
3.7421761656786336	-109.18204834890722	96.31709761420692	-13.234373342589684	96.31709761420669	-82.38718066791066	-60.68587345674884	-13.234373342589663	-60.68587345674887	196.66834111926084	
3.7972081681150844	-87.00521367491527	47.490683699861464	-8.917065792448202	47.490683699861194	-102.08374619578368	-79.68301679725366	-8.917065792448199	-79.68301679725369	199.15387995546993	
3.852240170551535	-63.031105937240525	-2.573695194399704	-8.894725276267355	-2.573695194400017	-114.21268261393962	-93.41723903560819	-8.894725276267371	-93.41723903560822	201.01601289074532	
3.907272172987985	-32.71884877277037	-43.660410709657	-15.53550565273579	-43.66041070965727	-116.11302571890604	-98.34145594319354	-15.535505652735834	-98.34145594319355	209.75736361783717	
3.962304175424436	11.026716045155126	-68.90408345959581	-30.7531902025551	-68.90408345959611	-108.18849813122	-91.90805325673234	-30.753190202555153	-91.90805325673236	228.5309553280454	
4.017336177860886	73.06898783653708	-77.18902081144608	-54.360232812107505	-77.18902081144628	-94.32947469295496	-73.17239043688645	-54.36023281210758	-73.17239043688645	254.4677703565088	
4.072368180297337	151.39092447033687	-73.17596592859766	-82.72727368605753	-73.17596592859778	-80.52914491051096	-42.941089699718894	-82.72727368605761	-42.94108969971888	280.21288586003	
4.127400182733787	234.90332045917694	-65.02438922871944	-108.94075960159171	-65.0243892287195	-72.44701760171016	-3.378976782579935	-108.94075960159182	-3.3789767825798798	297.6850145436749	
4.182432185170238	306.4188247022913	-60.681113924291886	-125.04746924262493	-60.68111392429188	-72.72600372004801	42.464494382455875	-125.04746924262506	42.46449438245596	302.2278787160285	
4.2374641876066885	349.6518749613521	-64.7664400587656	-125.48856336679745	-64.76644005876551	-80.12660493486487	90.80390030052746	-125.48856336679759	90.80390030052757	295.29923238950994	
4.292496190043138	356.3627748645142	-77.35918781419137	-109.69421349646619	-77.35918781419129	-91.24585560371578	136.9366304525061	-109.69421349646635	136.93663045250628	284.2935931300165	
4.347528192479589	329.5153030267091	-94.84162813640984	-82.3812867108156	-94.84162813640977	-103.79816127410818	175.10138752435188	-82.38128671081579	175.10138752435205	279.4094716684009	
4.40256019491604	281.163294829627	-112.33714239524964	-51.50846984207821	-112.33714239524959	-118.29132202733119	198.9036969182639	-51.50846984207841	198.90369691826407	288.790704118043	
4.45759219735249	225.73044068626467	-125.7262409583359	-25.18228268163671	-125.72624095833586	-137.04575202831438	202.64412585089798	-25.18228268163693	202.6441258508981	314.5738090625622	
4.512624199788941	174.92458613276702	-132.81315475094974	-9.09410210870385	-132.81315475094968	-160.0666071081984	183.4520587288996	-9.094102108704101	183.45205872889971	351.9827763500599	
4.5676562022253915	135.3328427849321	-132.99145033509512	-5.18947757509979	-132.99145033509518	-182.03547057099843	143.29302654983928	-5.189477575100032	143.29302654983937	391.9108261005217	
4.622688204661841	110.46292894474342	-126.2584519571111	-11.542304430190978	-126.25845195711116	-192.85495609991244	89.58828510892553	-11.542304430191209	89.58828510892556	425.26291004094793	
4.677720207098292	103.43068169338534	-111.544760322561	-23.270093598647755	-111.54476032256106	-181.74320492496696	33.652858047110655	-23.27009359864793	33.65285804711065	446.47483275820525	
4.732752209534743	117.51782150766942	-86.69011370070858	-34.366554629184364	-86.69011370070857	-142.1846112808029	-12.730736235950346	-34.36655462918447	-12.730736235950353	454.8051466715025	
4.787784211971193	154.9858324319969	-49.83838185119707	-40.11840215251773	-49.83838185119703	-74.17403767696439	-41.00346008851404	-40.11840215251776	-41.00346008851406	453.3222773067182	
4.842816214407644	214.9656921737669	-2.457328803465657	-39.03263898908219	-2.457328803465572	17.122109506921987	-47.962720474238694	-39.03263898908213	-47.96272047423871	446.6925874435155	
4.897848216844094	292.7174823466374	48.21322112009578	-33.12413943941603	48.21322112009591	124.33581395598074	-35.7338660614935	-33.124139439415906	-35.73386606149353	438.772996220621	
4.952880219280544	380.84188473109157	89.94613021597999	-26.152298712027864	89.94613021598013	239.8849910133375	-10.355644001255563	-26.152298712027665	-10.355644001255612	430.8787794639695	
5.007912221716995	471.0362066381924	110.04387442630038	-20.77570565205785	110.04387442630048	356.0428783176302	20.012411430321382	-20.775705652057585	20.0124114303213	421.19814514910877	
5.062944224153446	555.5895449265577	101.01285769026063	-16.347866514594394	101.01285769026074	464.0921601528733	46.78397722865151	-16.34786651459407	46.78397722865138	405.56497938965936	
5.117976226589896	627.950391721505	64.05773651864627	-8.853388697730896	64.05773651864632	554.9618441260084	62.62397713986392	-8.853388697730534	62.62397713986377	379.2770159335158	
5.173008229026347	683.0064168612338	8.043580146743537	6.892941227610812	8.043580146743594	621.6498636576424	63.16628175300903	6.892941227611232	63.16628175300886	339.19415775382845	
5.228040231462797	717.5072893515619	-54.6458423236694	34.16113505650728	-54.64584232366943	662.2547585069775	48.22465428764234	34.1611350565077	48.224654287642196	285.2643893345136	
5.283072233899247	730.1876966287866	-112.44908779828586	72.26673061441714	-112.44908779828594	679.8998665868846	21.775291465913394	72.26673061441757	21.775291465913288	220.95730098021562	
5.338104236335698	721.4352490534479	-156.94866206815715	116.82860527333604	-156.94866206815723	678.4448027542543	-9.560942516974896	116.82860527333642	-9.560942516974963	152.55175392034337	
5.393136238772149	692.4150900356591	-183.3900808865637	161.86915912384052	-183.3900808865638	657.4292680634092	-38.83437295353339	161.86915912384086	-38.83437295353343	87.69610522038293	
5.4481682412086	645.055772823222	-190.74305996014266	202.0896928007868	-190.7430599601427	610.8320147829558	-60.821808868456486	202.08969280078702	-60.821808868456515	33.84133019537938	
5.50320024364505	582.2095801061031	-181.9129531150357	233.78951664180755	-181.9129531150357	531.7705905514478	-72.98454911221519	233.78951664180772	-72.98454911221523	-2.867143823904044	
5.5582322460815	508.2716499956219	-163.48637936970118	254.39315808024583	-163.48637936970104	420.2172595322911	-75.35016340192072	254.39315808024588	-75.35016340192078	-18.240803909146585	
5.613264248517951	428.42565166350903	-144.03440794638516	261.8343682224087	-144.034407946385	287.32354332672776	-69.8647279574859	261.8343682224088	-69.86472795748595	-10.601092319469927	
5.668296250954401	348.0999984133902	-131.18477511429947	254.92558059263985	-131.1847751142992	153.46019995950542	-59.69396643039413	254.92558059263985	-59.693966430394184	18.47658078226703	
5.723328253390852	272.25748832387785	-128.65925580305924	234.56085697388903	-128.65925580305904	40.63961458106237	-48.580223687916465	234.56085697388892	-48.58022368791649	63.62189578054689	
