# Stress in units of bar (10^5 Pa)
# z	Sxx	Sxy	Sxz	Syx	Syy	Syz	Szx	Szy	Szz
0.0	190.47230224734196	-210.9768638613765	69.4389478141179	-210.9768638613761	281.45703683310074	35.51165594593086	69.43894781411797	35.5116559459307	143.02720426508964	
0.055341420315649814	184.15733332902914	-233.67411590607082	65.52733318388701	-233.67411590607037	250.09812262340893	21.374812242210616	65.52733318388725	21.374812242210446	127.27011175001357	
0.11068284063129963	171.40279313348174	-250.00887935110367	60.04661860073854	-250.00887935110308	199.56569051190593	11.681502989220869	60.04661860073891	11.68150298922068	107.91610993156742	
0.16602426094694944	152.26510986185488	-258.06991015269523	52.68343179746765	-258.0699101526945	132.53751195122842	6.937289812150795	52.68343179746815	6.937289812150566	85.37746636334617	
0.22136568126259926	128.02132543194065	-257.19700705599377	43.26124813431216	-257.197007055993	54.204566427431914	7.208350115931501	43.261248134312716	7.208350115931207	60.85275248124115	
0.27670710157824907	100.83996036701609	-248.03059911725163	31.866353509607265	-248.03059911725083	-28.475599777390116	12.201218429206467	31.86635350960785	12.201218429206115	36.165500768576045	
0.3320485218938989	73.5593245592614	-231.95176860479384	18.91342264555054	-231.95176860479296	-108.01801596696923	21.358767221262017	18.9134226455511	21.358767221261598	13.405782505080186	
0.3873899422095487	49.13740989861853	-210.73990040484023	5.123234036410898	-210.7399004048394	-177.28086129974344	33.983614457331896	5.123234036411413	33.98361445733143	-5.460565559011965	
0.4427313625251985	30.163663445086094	-186.01569903078544	-8.564329889516664	-186.01569903078462	-230.7122408120169	49.309013290486625	-8.564329889516213	49.309013290486135	-18.874858191722307	
0.4980727828408483	18.347720707183193	-158.94914969990282	-21.104331671056478	-158.94914969990205	-265.14808423130114	66.57748009876713	-21.104331671056094	66.57748009876663	-25.80084910213914	
0.5534142031564981	14.360461008129448	-130.2103089023728	-31.45995406103496	-130.210308902372	-279.9145665545923	85.08941660155286	-31.459954061034633	85.08941660155239	-25.6049869932912	
0.608755623472148	17.32593824575175	-100.00849141701437	-38.668680699688295	-100.00849141701356	-277.0847098807997	104.21746654433709	-38.66868069968801	104.21746654433662	-17.864221421759332	
0.6640970437877978	25.31821476339927	-68.40517811708528	-41.86864014053288	-68.4051781170845	-260.3148958322107	123.361749350639	-41.86864014053264	123.36174935063856	-2.16640033419334	
0.7194384641034476	35.062981414615635	-35.40403604870018	-40.338070397699646	-35.404036048699396	-234.20780993503246	141.86623052158112	-40.33807039769943	141.86623052158066	21.87951628981834	
0.7747798844190974	43.1441541133837	-1.2724473032779997	-33.588877928581816	-1.2724473032772727	-202.71583137527833	158.94266580448334	-33.588877928581624	158.94266580448289	54.43151074123064	
0.8301213047347472	46.13735012406582	33.48195772899456	-21.504169584457195	33.481957728995184	-168.84462700478275	173.61250415653615	-21.504169584457046	173.61250415653572	95.0417810143527	
0.885462725050397	41.77085356822676	67.97681173392675	-4.47703580654378	67.9768117339272	-134.00828667275226	184.78675655196218	-4.477035806543682	184.7867565519617	142.27335591105006	
0.9408041453660468	29.145494489289412	101.04629685818765	16.460231212119815	101.04629685818793	-98.45668094343525	191.40730992921752	16.460231212119858	191.407309929217	193.4900865150367	
0.9961455656816967	9.280656336242163	131.41513353166533	39.679689900465256	131.4151335316654	-61.85116624229292	192.68044280769627	39.67968990046525	192.68044280769575	244.9094782290739	
1.0514869859973466	-15.239578834026467	157.8336653820772	63.14142590839788	157.83366538207707	-23.61686792081052	188.24149131119063	63.14142590839783	188.24149131119006	292.07209857554074	
1.1068284063129963	-40.84501788794533	179.43450099909754	84.67882781892773	179.43450099909722	16.262062286609876	178.2690432164793	84.67882781892766	178.26904321647874	330.57456484865315	
1.162169826628646	-63.781074333473654	195.95722827271626	102.31725995669414	195.95722827271578	57.33098102781915	163.47683506063052	102.31725995669407	163.47683506063004	356.89956390246607	
1.217511246944296	-81.00104791709515	207.74724347318886	114.4912994980198	207.74724347318823	98.8658838249662	144.95928783839673	114.49129949801974	144.9592878383963	369.1806583649623	
1.2728526672599458	-90.64939332126909	215.7228576662816	120.08458563810686	215.72285766628085	139.7943394595918	124.05169688415302	120.08458563810683	124.0516968841527	367.58265047478716	
1.3281940875755955	-92.46043218567763	220.89178983067717	118.30661040392188	220.89178983067643	179.3361568502008	102.17949942823881	118.3066104039219	102.1794994282386	354.23218662933726	
1.3835355078912452	-87.0686782017049	224.25795276511462	108.52531944653701	224.25795276511383	217.22033946200656	80.74465188660616	108.52531944653705	80.7446518866061	332.63674684275645	
1.4388769282068952	-75.58115541060997	226.38544855384418	90.22432558912769	226.38544855384353	253.52457560688478	61.082878072170956	90.22432558912774	61.08287807217104	306.70638012062716	
1.494218348522545	-58.47780416570737	227.48660151811586	63.187803785299565	227.4866015181152	288.9501516949673	44.42023451126646	63.187803785299636	44.42023451126665	279.7071305119055	
1.5495597688381948	-35.165290630307226	227.48347993913399	27.876043144363344	227.4834799391334	324.52181402477277	31.83233654738059	27.876043144363443	31.83233654738087	253.44991371302686	
1.6049011891538445	-4.004450392481232	225.9382722021316	-14.03404226781069	225.93827220213115	361.50555759815916	24.18601101121579	-14.034042267810584	24.186011011216124	227.9627607741233	
1.6602426094694944	37.306439968910865	222.2144593121808	-59.33311097589565	222.21445931218034	400.96122918055926	22.04873176944192	-59.333110975895536	22.048731769442284	201.81238919720585	
1.7155840297851443	90.59292635161435	215.28900170304587	-103.39690733062652	215.28900170304556	443.8143439139312	25.544569857038343	-103.39690733062638	25.544569857038702	172.91863936317145	
1.770925450100794	156.2191956731149	203.79058362741705	-140.87755077758996	203.79058362741677	490.25691556711746	34.18128142718093	-140.87755077758982	34.18128142718126	139.61328176762373	
1.8262668704164438	232.30292325506045	186.22854262529523	-166.85446519925176	186.228542625295	539.6728882536212	46.81900681671969	-166.85446519925156	46.81900681671997	101.44903762104394	
1.8816082907320937	314.42849652480464	161.45060758468998	-178.02889652529862	161.45060758468978	590.0840767229105	61.720734723829345	-178.02889652529848	61.720734723829565	59.59196594346962	
1.9369497110477436	396.07280041934627	129.15977958338215	-173.597422199012	129.159779583382	638.3084631604861	76.84638908341884	-173.59742219901182	76.846389083419	16.636166913734005	
1.9922911313633933	469.53864017788555	90.40983085817479	-155.44297484703833	90.40983085817464	679.9944429973028	90.29550535371092	-155.44297484703816	90.29550535371104	-24.015104723050726	
2.047632551679043	527.2065400517115	47.48426648667801	-127.55680420633206	47.48426648667793	710.5847167396689	100.80046829401437	-127.55680420633189	100.80046829401442	-58.81048782670202	
2.102973971994693	562.8744979454334	3.748754730402325	-94.99325847743518	3.748754730402318	726.2217035695575	108.07494446920361	-94.99325847743508	108.07494446920367	-84.62786704620568	
2.158315392310343	572.9151231307776	-37.14474010057417	-62.7230616001453	-37.144740100574126	724.8498190674634	112.8413937151167	-62.723061600145215	112.84139371511675	-99.08312011383762	
2.2136568126259926	556.4870286016512	-71.89817767011534	-34.811151095408086	-71.8981776701153	706.2595188722202	116.54283375093073	-34.811151095408086	116.54283375093077	-100.66458687784461	
2.2689982329416423	515.9446977766023	-98.20008724091853	-14.01004345482868	-98.20008724091839	672.336405509877	120.84243660796174	-14.010043454828722	120.84243660796179	-88.8380974632137	
2.324339653257292	455.94496882274007	-115.01141747479635	-1.7524282804113742	-115.01141747479618	625.9224905946078	127.0946353833077	-1.752428280411479	127.09463538330778	-64.18752717867619	
2.379681073572942	382.94290866168757	-122.49761096392952	1.6801756636548237	-122.49761096392933	570.0848254214399	135.92986983565862	1.680175663654671	135.92986983565868	-28.58096021682956	
2.435022493888592	304.1105935565905	-121.88697073452704	-3.0218145892091286	-121.88697073452687	507.3784774654439	147.10479958064943	-3.0218145892093418	147.1047995806495	14.783315788782453	
2.4903639142042415	226.2554454732503	-114.91854922879719	-14.312969078539272	-114.918549228797	439.3488422670731	159.55725299800966	-14.31296907853946	159.55725299800972	61.60735344098159	
2.5457053345198917	155.3698190380224	-103.62439982863162	-29.92416155737961	-103.62439982863148	367.1661566827514	171.6373594016639	-29.924161557379804	171.63735940166393	107.11509958400022	
2.6010467548355414	95.67233671825956	-89.8525909390053	-47.11876039611467	-89.85259093900521	291.9107512168956	181.45716525762563	-47.118760396114894	181.45716525762563	146.8870977247135	
2.656388175151191	49.63561678494035	-75.29540555366165	-63.13124919914118	-75.29540555366158	215.7352281226618	187.24148199062083	-63.13124919914137	187.24148199062083	177.76832558974056	
2.711729595466841	17.66246729512646	-61.14570450790315	-75.60176231319427	-61.14570450790313	142.09628818028784	187.5787901777443	-75.60176231319444	187.5787901777443	198.52423308491586	
2.7670710157824905	-1.7088546299573046	-48.20022544328897	-82.9512344905474	-48.200225443289014	75.80918281176031	181.6443520709319	-82.95123449054759	181.64435207093183	210.0187139421522	
2.8224124360981406	-11.62418704282814	-36.72600120903644	-84.6230906977901	-36.72600120903651	22.359199835174895	169.25462209025196	-84.62309069779026	169.25462209025193	214.8972208267056	
2.8777538564137903	-16.290591262032997	-26.491645494768658	-81.08265071439726	-26.491645494768747	-13.544454757169532	150.8866998769854	-81.08265071439742	150.8866998769854	216.73445711125262	
2.93309527672944	-20.271640226498477	-16.972828810683424	-73.61203322312063	-16.97282881068352	-29.09220413942178	127.63740054553682	-73.61203322312079	127.63740054553686	219.02368366326428	
2.98843669704509	-27.61498717299051	-7.561294510647677	-63.97024781637235	-7.561294510647766	-24.756429782657115	101.23151716829003	-63.9702478163725	101.23151716829011	224.2716813873231	
3.04377811736074	-40.973295089275155	2.2555459428486415	-53.973922873506055	2.2555459428485634	-4.556608406159981	74.01990883443821	-53.973922873506226	74.01990883443831	233.37388870766506	
3.0991195376763896	-60.98346665727638	12.67133285776203	-45.043517217938586	12.671332857761964	24.85386335574995	48.83898803905569	-45.043517217938735	48.838988039055835	245.62118126559568	
3.1544609579920393	-86.14843571294256	23.56040113676884	-37.859888958252895	23.56040113676877	55.26078314554415	28.67052768615633	-37.85988895825304	28.670527686156486	259.1331453902568	
3.209802378307689	-113.55394117570992	34.45151280048912	-32.24147703442703	34.451512800489084	78.74232462906772	16.12451785911339	-32.24147703442715	16.124517859113517	271.6634586807281	
3.265143798623339	-139.90146614243844	44.96485368180403	-27.289273847198686	44.964853681804	89.33625066615429	12.807713258677936	-27.2892738471988	12.80771325867807	281.38833170434833	
3.320485218938989	-162.80075993330712	54.744179455437795	-21.801268678731514	54.744179455437795	83.50895970107258	18.839445903178824	-21.80126867873161	18.839445903178962	287.36892234578335	
3.3758266392546386	-181.56014563244463	63.72576451504716	-14.764603567751479	63.72576451504716	60.64643464133569	32.74312663776007	-14.764603567751571	32.743126637760255	289.55048566218966	
3.4311680595702887	-196.99654511639653	71.94086334795841	-5.906460813037689	71.94086334795846	22.773578783979364	51.790768579860256	-5.906460813037748	51.7907685798604	288.3950576024998	
3.4865094798859384	-210.66570879454852	79.20512048925	4.125611202765793	79.20512048925004	-25.923737056848935	72.65728383712221	4.125611202765743	72.65728383712235	284.34302507440833	
3.541850900201588	-223.3559924368955	84.96375222453084	13.945427872674866	84.96375222453086	-79.85341976090433	92.14832745289206	13.945427872674834	92.14832745289223	277.44997151204893	
3.597192320517238	-234.21291109272573	88.14579100188256	21.96676457696312	88.14579100188257	-132.43272693733843	107.74662470251137	21.966764576963104	107.7466247025115	267.3076036607383	
3.6525337408328875	-240.50224682942152	87.3482214373082	27.072688905464908	87.34822143730821	-176.9617544627635	117.81068186873381	27.072688905464904	117.81068186873395	253.44485250068033	
3.7078751611485377	-238.498278579646	81.42755780733239	29.14096641745425	81.42755780733238	-207.56123877561055	121.55023068536006	29.14096641745428	121.55023068536019	235.83477515311	
3.7632165814641874	-224.84352842916658	69.77515420113996	29.215893572570042	69.77515420113993	-219.98850365374432	118.82065423789146	29.215893572570078	118.8206542378916	215.34590507052994	
3.818558001779837	-198.24303693340357	52.79934140853217	29.165815348569605	52.799341408532136	-212.5848258200602	109.97316435727711	29.16581534856965	109.97316435727724	193.87780163978894	
3.873899422095487	-160.03817936781763	31.784129842471874	30.97898397702742	31.78412984247183	-186.6104436815768	95.77313379619633	30.97898397702746	95.77313379619648	174.02575747528755	
3.929240842411137	-114.12388376014789	8.491499937582633	36.0188446140993	8.491499937582587	-146.15421812201882	77.44848418820415	36.01884461409934	77.44848418820429	158.41399957138253	
3.9845822627267866	-66.60116689701677	-15.404185110229022	44.488545087730614	-15.4041851102291	-97.6223269776747	56.679467506458195	44.48854508773062	56.67946750645834	148.87869258840928	
4.039923683042437	-23.945565433469426	-38.967604081420625	55.39834289559298	-38.96760408142068	-48.44676043501267	35.4338323190032	55.398342895593004	35.43383231900336	145.87853859507604	
4.095265103358086	8.228658617832519	-61.82716058229061	66.96783219172605	-61.82716058229066	-5.983624585666476	15.708282575754113	66.96783219172602	15.708282575754273	148.29537333958817	
4.150606523673736	26.112727004071658	-84.17780589008945	77.31327054218306	-84.17780589008953	23.682100672649412	-0.8642916036164223	77.31327054218302	-0.8642916036162447	153.67891788169862	
4.205947943989386	27.909622063797798	-106.10935941729275	85.06017402113977	-106.10935941729281	36.71940762695371	-13.283783770859777	85.06017402113972	-13.283783770859596	158.8973525755562	
4.261289364305036	14.540312370523267	-127.01970654874344	89.72637034054645	-127.01970654874351	32.18771933924762	-21.30600965701495	89.7263703405464	-21.30600965701474	160.93766041879002	
4.316630784620686	-10.719241683117225	-145.25255569337207	91.70541479046787	-145.25255569337216	12.017463476364718	-25.31300213012777	91.70541479046783	-25.313002130127522	157.63130723792779	
4.371972204936335	-42.436035875402354	-158.33053065005834	91.99148476364884	-158.3305306500584	-19.53524733158419	-26.043945996580415	91.9914847636488	-26.043945996580153	148.14278532193794	
4.427313625251985	-73.48215377837258	-163.39390037288774	91.79527220474682	-163.39390037288777	-56.210393343836635	-24.288378981982603	91.79527220474682	-24.288378981982316	133.1129847639862	
4.482655045567635	-95.93082050066569	-157.97146838103265	92.2328320720623	-157.9714683810326	-91.03558766682923	-20.68185126669759	92.23283207206234	-20.6818512666973	114.46720546726822	
4.5379964658832845	-102.31964115235016	-141.05173901923973	94.1002913458983	-141.05173901923965	-117.41039490079885	-15.625970497214253	94.10029134589838	-15.625970497213961	94.98319791204398	
4.593337886198935	-87.35744881177348	-113.44929882082464	97.8302489603267	-113.44929882082452	-129.81467992017988	-9.356813744355158	97.83024896032683	-9.35681374435488	77.74973407117763	
4.648679306514584	-49.12964032409383	-78.19447627871645	103.56571777485564	-78.19447627871631	-124.73523294397745	-2.0157453945202946	103.56571777485583	-2.0157453945200494	65.56214017447618	
4.704020726830234	10.01643326462181	-39.81794966312036	111.27432041845977	-39.817949663120146	-100.82466117131062	6.306654425002581	111.27432041845996	6.306654425002794	60.418663392568	
4.759362147145884	84.2672895958678	-3.5227964252718778	120.8101375556522	-3.522796425271693	-58.58155394240175	15.578994602581696	120.81013755565246	15.578994602581888	63.268481805619594	
4.8147035674615335	165.64885592982017	26.11231331273052	131.89577620259257	26.11231331273072	0.13671459439794376	25.84330589638784	131.89577620259288	25.843305896387996	74.03669273043324	
4.870044987777184	246.06760474875315	46.1307931851306	144.03092910286082	46.130793185130756	72.46590061510325	37.178803209787844	144.03092910286117	37.178803209788015	91.99539646766974	
4.925386408092834	319.1055561550543	55.745463768445575	156.37034892823482	55.74546376844569	154.6987455294829	49.51287211369309	156.37034892823513	49.51287211369325	116.2299247082523	
4.980727828408483	380.70353086104217	56.207875874643904	167.71085166377915	56.207875874643975	242.11379949164024	62.4294246637771	167.71085166377944	62.42942466377724	146.03519654149682	
5.036069248724133	428.8726541787572	50.09223405860335	176.58572400213268	50.0922340586034	328.7203761103158	75.01517068326498	176.58572400213296	75.01517068326514	180.96438259430403	
5.091410669039783	462.86680194166513	40.45610758369046	181.50955412772294	40.45610758369046	407.2663429954711	85.91832976381393	181.50955412772316	85.91832976381411	220.58377576266363	
5.146752089355433	482.0744567695191	30.097400025753828	181.3079854513814	30.097400025753757	469.8674349383484	93.67673264366707	181.30798545138163	93.6767326436673	263.9732115077554	
5.202093509671083	485.90779675761985	21.080132866157356	175.35361509713226	21.080132866157328	509.2419370767979	97.16863605904202	175.35361509713243	97.16863605904226	309.3097592821318	
5.257434929986732	473.8411159840487	14.763855036220832	163.72060104645828	14.763855036220754	520.0276429834679	96.07385525389594	163.72060104645843	96.07385525389618	353.7909203854634	
5.312776350302382	445.96795081773035	11.818998710605996	147.1819648823436	11.818998710605904	500.099484920901	91.1333677329164	147.18196488234372	91.13336773291667	393.94995488225834	
5.368117770618032	403.16222471103686	12.51733729153753	127.09307496590017	12.51733729153743	450.9474987406618	84.03449265456918	127.09307496590021	84.03449265456942	426.3476849119605	
5.423459190933682	347.29376734809193	16.672092414371917	105.26908655113331	16.672092414371832	377.45939213816337	76.91856138472082	105.26908655113331	76.91856138472107	448.3405029217596	
5.478800611249332	280.8049316310403	23.775086042737527	83.83413418563562	23.77508604273747	286.9762913572368	71.71947784709576	83.83413418563559	71.71947784709603	458.5873960296917	
5.534142031564981	206.50251352311432	32.82769585062	65.02235998650343	32.827695850619925	188.13682547985687	69.57930172113151	65.02235998650333	69.57930172113177	457.23431286497276	
5.589483451880631	127.23005653370159	42.58687013512074	50.93852984673805	42.5868701351207	89.71926472143944	70.5691730074829	50.93852984673792	70.56917300748322	445.67798689672907	
5.644824872196281	46.00958207443442	51.49804565971219	43.25248889778396	51.49804565971216	-0.16281122275605497	73.7908990941586	43.25248889778376	73.79089909415896	426.07311999115166	
5.7001662925119305	-34.13681198891089	58.08090818713194	42.869550637975394	58.080908187131975	-74.98972945962203	77.84052469660034	42.86955063797516	77.84052469660074	400.782657842694	
5.755507712827581	-109.89344726588278	61.11218342717227	49.70770348297795	61.112183427172376	-130.18321313439967	81.35403609411549	49.70770348297762	81.35403609411595	371.9871323800046	
5.810849133143231	-177.37775478855926	59.92428565346847	62.6728003773239	59.92428565346865	-163.50126592149397	83.49013844395536	62.672800377323505	83.49013844395589	341.47877205896185	
