# Stress in units of bar (10^5 Pa)
# z	Sxx	Sxy	Sxz	Syx	Syy	Syz	Szx	Szy	Szz
0.0	79.75372227853515	-265.10964878851246	102.96017947533034	-265.10964878851274	222.64611178454854	37.1494860543354	102.96017947533001	37.14948605433496	168.35622391665777	
0.0529447263110157	185.25812441174412	-232.9862790634236	121.81510674063075	-232.98627906342398	192.5405773208666	42.70453043752619	121.81510674063014	42.70453043752534	164.50543729385072	
0.1058894526220314	277.99548605531527	-202.7277643851113	126.78597212373535	-202.72776438511164	127.32375343153907	53.50389868580591	126.78597212373457	53.50389868580501	160.7263981323428	
0.15883417893304708	320.885564914991	-184.84472835117236	119.7575376862091	-184.8447283511726	38.18206539050591	66.14421644561949	119.75753768620827	66.1442164456188	159.691519666451	
0.2117789052440628	294.8093307452659	-173.07599063117556	106.0520759861401	-173.07599063117576	-56.50488406786976	79.0741852114936	106.0520759861393	79.07418521149313	162.73119654558462	
0.2647236315550785	217.54207576278338	-153.9836905737372	89.82192020261733	-153.98369057373736	-134.2170749165179	91.2448963947304	89.82192020261667	91.24489639472998	169.01018646146707	
0.31766835786609415	125.56884530512065	-119.24111553806263	73.13120747987114	-119.24111553806281	-179.60503375313985	100.15044006706131	73.13120747987062	100.15044006706083	175.73094878320433	
0.37061308417710986	39.4257554628592	-70.61959000542376	57.9352868848661	-70.61959000542383	-194.62175358787647	102.10576323244047	57.93528688486569	102.10576323243998	179.0843923650935	
0.4235578104881256	-38.87794614566221	-20.685442164836708	46.325453371420224	-20.685442164836495	-184.48050263328864	95.2741455136411	46.325453371419854	95.27414551364078	175.40162413960505	
0.4765025367991413	-98.23462645676486	11.789856046728993	37.595216901057114	11.789856046729525	-134.5833492433652	81.83001000994466	37.59521690105677	81.83001000994462	162.18268473862662	
0.529447263110157	-112.76452814029773	16.730725361785783	27.0002613079532	16.730725361786483	-20.712048455053164	66.45318366778801	27.000261307952844	66.4531836677882	139.38758863341525	
0.5823919894211727	-70.5624546527352	5.874959288001843	10.601276247497154	5.87495928800255	152.98027511102677	52.93022541286115	10.601276247496756	52.93022541286138	110.90266566666654	
0.6353367157321883	7.465423165890073	2.779675183141618	-8.302032667101088	2.7796751831422006	340.3567719059393	42.217045732728764	-8.302032667101592	42.21704573272889	84.5207078156057	
0.6882814420432041	83.57713356014318	17.39880532526567	-20.409122555381508	17.398805325266054	487.5647714718755	32.65197257335703	-20.40912255538217	32.65197257335705	68.98731939524988	
0.7412261683542197	126.59574050587742	37.38236588054497	-19.71213079496185	37.38236588054514	570.8710981838335	20.611418415747757	-19.71213079496269	20.611418415747764	69.41651793640216	
0.7941708946652355	118.32130600315121	45.966942912046534	-9.631674608458678	45.96694291204639	596.99788112416	1.3084178301321003	-9.631674608459665	1.308417830132118	84.0174987008034	
0.8471156209762511	55.78355570573971	41.720953102531695	1.7392037012145396	41.720953102531126	581.1060888557352	-27.939185894763	1.7392037012134889	-27.939185894763046	103.87633663234143	
0.9000603472872668	-38.536777435245575	37.48238163460317	11.14534985892448	37.48238163460235	537.3891949576371	-62.796238229878476	11.145349858923527	-62.79623822987868	116.59968960559968	
0.9530050735982826	-118.39233278943587	43.703218476747196	23.653644927558545	43.7032184767462	480.5395419621881	-92.03377342927118	23.653644927557867	-92.03377342927158	113.96530383290782	
1.0059497999092983	-142.92248432969114	57.389673271362206	47.42437290242688	57.38967327136119	420.16230652054105	-105.55397954970857	47.424372902426555	-105.55397954970911	99.42318473792898	
1.058894526220314	-109.95470493773442	68.54542119426435	85.4804041026488	68.54542119426333	354.38085862763165	-102.01427063577054	85.48040410264872	-102.0142706357711	87.43817060147687	
1.1118392525313296	-53.2634245313308	74.80243804885126	131.33927422571338	74.80243804885032	279.76902306378963	-87.0323787426991	131.33927422571327	-87.0323787426996	92.04478648873962	
1.1647839788423453	-7.699805036787723	84.83112723004844	171.59180669115838	84.83112723004761	201.69433182725803	-65.10891546770868	171.59180669115796	-65.10891546770918	114.0006266339957	
1.217728705153361	15.160726235978956	106.3942356057174	193.02595333720146	106.39423560571663	127.36450498728158	-36.36711819126809	193.02595333720063	-36.3671181912686	139.38785124577322	
1.2706734314643766	22.587793371604533	136.8690880513737	188.77670312779227	136.86908805137296	58.253651987502934	-2.547758101464278	188.77670312779105	-2.5477581014648427	151.52993202833002	
1.3236181577753925	30.001295115633056	168.98206453045577	160.23250209168853	168.982064530455	-1.4075380517053304	26.742571010502505	160.23250209168714	26.742571010501837	145.11546531607428	
1.3765628840864081	55.11208560943403	199.48889663359608	115.78330098704444	199.48889663359523	-36.75609787348766	39.027930769565984	115.78330098704305	39.027930769565145	130.203622592447	
1.4295076103974238	106.06204179099569	225.8031116209762	68.17065302599539	225.8031116209753	-34.551850058035924	32.24974757631587	68.1706530259943	32.249747576314824	123.15136990394856	
1.4824523367084395	166.43674129046298	238.48963871019856	29.9095052387532	238.48963871019765	-4.483750691586014	20.068931973613964	29.909505238752576	20.068931973612685	132.3836109332238	
1.535397063019455	199.7412876812086	226.2766046062922	7.22486828729431	226.2766046062914	23.583735657602546	20.573609599170627	7.2248682872941785	20.573609599169192	151.62763404098547	
1.588341789330471	182.2245468010088	189.90705433790512	-1.612583710955949	189.9070543379046	27.635062974388816	39.895693218180966	-1.6125837109556755	39.89569321817952	166.72183046356164	
1.6412865156414866	137.08334184534155	147.8946977417743	0.3680838264906836	147.89469774177417	13.244254600212273	68.78444582959192	0.36808382649117655	68.78444582959067	168.15014468458358	
1.6942312419525023	128.2606853955935	124.60134692171812	15.553579579579292	124.6013469217183	2.770286381675362	94.57317455856153	15.55357957957984	94.5731745585606	156.17728219662632	
1.747175968263518	211.64609476597863	130.2270969791399	47.905946900728566	130.22709697914024	16.424760446356416	113.29152721497337	47.90594690072906	113.29152721497277	136.46912476909392	
1.8001206945745336	382.8356090639047	153.1813902482754	93.1998108170674	153.18139024827573	67.2815889890507	129.28174464262818	93.19981081706777	129.28174464262779	114.38634921570561	
1.8530654208855495	573.1198927085618	171.61846619011556	137.02782993120235	171.61846619011595	163.46526128830791	146.32178157978564	137.02782993120258	146.32178157978532	92.90017859482671	
1.9060101471965651	700.5949412249608	170.0396886847343	162.64502355956535	170.03968868473484	299.84749332444795	162.21229882941634	162.64502355956546	162.2122988294161	73.46229160964579	
1.9589548735075808	731.2761043913162	148.79492667391023	159.66551326433517	148.79492667391102	451.3753582115929	171.90431185068013	159.66551326433517	171.90431185068002	58.437824367455605	
2.0118995998185967	697.4595570581546	124.96869943368549	129.16510906841705	124.96869943368633	588.0084763832418	173.29171364272653	129.16510906841705	173.29171364272665	52.61822791160146	
2.064844326129612	664.56198489603	120.15253561877778	84.94919224492921	120.15253561877836	698.407197739023	166.9834495739184	84.94919224492926	166.98344957391885	61.61007159181412	
2.117789052440628	679.7121327926207	141.30655003708543	46.93960605004533	141.30655003708563	793.1546321922405	150.80915383789903	46.93960605004544	150.80915383789974	89.4355004693234	
2.1707337787516434	744.7923207539717	177.7576765114344	27.68123267654606	177.75767651143417	885.7681398037486	119.74989661932241	27.68123267654616	119.74989661932325	137.33860241387015	
2.2236785050626593	825.2323495437347	214.7901325319404	25.182218675553255	214.79013253193986	972.0228958572047	74.03837815858313	25.182218675553266	74.03837815858387	201.06829832387743	
2.276623231373675	877.8248166196904	239.50593315120923	31.056821510532053	239.5059331512087	1029.7413411589648	23.554775273314387	31.056821510531975	23.554775273314785	267.54249133183987	
2.3295679576846906	874.9310092912275	238.67666682142288	42.61733806839253	238.67666682142257	1041.8963461552335	-18.840115926855745	42.61733806839238	-18.840115926855702	317.79242619525786	
2.3825126839957065	816.2517184419555	204.7301944986483	62.62322869368736	204.7301944986482	1013.3227616759756	-46.39623102657673	62.62322869368719	-46.396231026576935	335.8622562964307	
2.435457410306722	724.8993725101808	144.47070215664033	90.54606138362541	144.47070215664047	957.8863140177361	-60.10903293284517	90.54606138362524	-60.109032932845416	314.6195140022071	
2.488402136617738	630.4035924440178	77.88102990445499	122.2125635598437	77.88102990445518	884.1754079647474	-64.01774109852431	122.21256355984356	-64.0177410985245	255.90458565323297	
2.5413468629287532	555.6752865343166	28.607903550696754	157.87287305570803	28.607903550696882	803.0729496462634	-60.57991818354953	157.872873055708	-60.5799181835496	170.39666314481116	
2.594291589239769	512.4460191147588	9.378394750303906	200.7129429268075	9.378394750303924	727.9546438890991	-50.19388983031569	200.7129429268076	-50.19388983031569	77.82156021591376	
2.647236315550785	487.45748465463146	11.210401265568677	244.08029944513137	11.210401265568578	651.278375401911	-34.15377075201697	244.08029944513163	-34.153770752016975	2.9355915534874697	
2.7001810418618004	438.28023636827436	12.583220666061436	269.3746072482742	12.583220666061237	541.9974701847308	-16.039032083594833	269.37460724827463	-16.039032083594897	-32.87047582306725	
2.7531257681728163	329.2014526993009	2.1957402864190954	261.7103374833255	2.1957402864188538	386.24413170773227	0.8484257337019283	261.7103374833258	0.8484257337018057	-20.475010735506686	
2.8060704944838317	171.6641118463372	-10.817669021934822	221.6212565170597	-10.817669021935068	214.31473538314958	15.573199055835593	221.62125651705992	15.573199055835452	31.417955899280535	
2.8590152207948476	11.784435655871789	-8.257667189473185	160.2402151464289	-8.257667189473398	71.37540999079266	28.560241408049624	160.240215146429	28.56024140804949	98.8332450186091	
2.9119599471058635	-111.48734600487447	17.316729312889173	91.3684003838201	17.31672931288898	-21.388343759754036	40.85820922203888	91.3684003838201	40.85820922203873	154.85730584318458	
2.964904673416879	-180.67932171480138	50.106228515371804	28.996078880156777	50.10622851537164	-70.51760316695146	54.19755815997142	28.996078880156688	54.197558159971265	185.43477691318438	
3.017849399727895	-186.1198772221503	58.67318814870362	-16.661532083690133	58.67318814870353	-94.36981054286085	68.41466201872636	-16.66153208369023	68.4146620187262	198.32315535102302	
3.07079412603891	-123.09625031868121	23.69915779591046	-44.52962011318572	23.699157795910388	-108.60265469240201	78.20338076573871	-44.52962011318578	78.20338076573861	218.58395088291655	
3.123738852349926	-7.896566742537821	-39.48067749643238	-60.59826527502648	-39.48067749643244	-118.70672225221001	75.41570633986748	-60.59826527502645	75.41570633986746	270.26256785172507	
3.176683578660942	119.75015351751802	-92.46780028500204	-70.09061300325935	-92.46780028500208	-125.69832185683727	54.644476830001686	-70.09061300325925	54.644476830001736	353.018363836259	
3.2296283049719574	226.94588493643738	-108.58930767338823	-73.62852377178112	-108.58930767338832	-134.15380109186492	13.52668659428737	-73.62852377178098	13.526686594287476	432.5599287508478	
3.2825730312829733	312.81205244338537	-91.28398134613407	-69.0372538174835	-91.28398134613418	-144.75208798758155	-48.92754788118417	-69.03725381748342	-48.92754788118402	459.7637302196389	
3.3355177575939887	392.45780910110176	-60.39236078123041	-54.28096765182295	-60.39236078123052	-144.10130899803102	-124.52816285777637	-54.280967651822905	-124.52816285777615	407.17434448866965	
3.3884624839050046	461.62858507261933	-29.69134960297803	-31.338580579346335	-29.691349602978136	-115.9017245563526	-186.3729714833813	-31.33858057934632	-186.3729714833811	290.78124157691155	
3.4414072102160205	487.4467041318425	-1.3178193161624527	-9.825724540462481	-1.317819316162538	-61.876342719867296	-200.56138372973385	-9.825724540462465	-200.56138372973356	158.3456479214232	
3.494351936527036	435.65053420224035	24.19748570999566	-3.165737905958391	24.19748570999559	-2.9794327477449087	-155.99260551967308	-3.1657379059583484	-155.9926055196728	57.73817385068746	
3.547296662838052	307.92488346713037	41.31914387236081	-16.927076587168674	41.31914387236078	36.86383717953025	-77.30469338186411	-16.927076587168607	-77.30469338186383	13.426036717244191	
3.600241389149067	152.58622135593427	43.87246805113227	-41.82715341688535	43.8724680511323	45.95178930901738	-3.065236919797165	-41.82715341688527	-3.065236919796938	25.126492530183235	
3.653186115460083	33.601827729362356	31.56770391288657	-60.50392396235342	31.567703912886543	32.62374290034565	45.798842844986495	-60.50392396235334	45.79884284498664	79.76388950524105	
3.706130841771099	-14.80345755951302	12.826098420110952	-60.09458481846855	12.826098420110995	24.85167792271959	74.72789884684393	-60.094584818468505	74.72789884684397	160.62874534310447	
3.7590755680821144	-0.5532014648709946	2.537525739468279	-36.869991762944366	2.5375257394683643	51.770039636447436	98.62534027740105	-36.86999176294435	98.62534027740104	248.56111446106019	
3.8120202943931303	55.890593273182276	12.513363193242983	7.310656795034724	12.513363193243094	116.35180234229435	121.5508808003116	7.310656795034731	121.55088080031157	321.66864107004966	
3.8649650207041457	143.92896385811187	40.726861067417886	64.72334184461427	40.72686106741804	190.5150638940704	133.3265304432083	64.72334184461427	133.32653044320827	361.515366107831	
3.9179097470151616	246.31988784009127	69.92313628646691	115.32665302381359	69.9231362864671	236.81371884593338	123.67161368353098	115.32665302381359	123.67161368353095	365.5692520661538	
3.9708544733261775	325.73274818909005	77.99382814544161	130.07046905246762	77.99382814544168	234.68175948024754	95.59229030111334	130.07046905246762	95.59229030111331	353.4050168822437	
4.023799199637193	351.2542018654213	53.4545304189492	92.78138624369822	53.45453041894923	194.85968164504789	62.149726984939335	92.7813862436982	62.149726984939335	352.78496211860886	
4.076743925948208	325.8359902258589	7.391007422396704	18.73734505963001	7.391007422396626	153.89191255727837	33.17106035220166	18.737345059629956	33.17106035220169	372.05476482433437	
4.129688652259224	271.9310165376398	-32.63318043349797	-57.07217341421986	-32.63318043349809	146.2857278855052	9.29255967809244	-57.07217341421994	9.292559678092527	388.054175796694	
4.18263337857024	202.7565789239115	-49.29658190416964	-111.1784770893663	-49.29658190416973	168.90126562795552	-14.666462807225567	-111.1784770893664	-14.666462807225463	368.0942424027353	
4.235578104881256	120.34177738938958	-53.10600725041328	-143.86294283476633	-53.10600725041329	170.17498830020838	-46.575288135462586	-143.86294283476644	-46.57528813546249	304.4564728045445	
4.288522831192272	32.65080266979955	-64.28338894444948	-161.5823797127896	-64.28338894444944	85.43580617019583	-94.0180485420851	-161.5823797127897	-94.01804854208503	222.8209320880461	
4.341467557503287	-35.411030753192584	-83.84346923616309	-161.19159867263843	-83.843469236163	-101.59673197109505	-156.31206502479063	-161.19159867263852	-156.31206502479057	158.6529708550561	
4.394412283814303	-51.05260656019165	-91.28105758781135	-139.3671209250106	-91.28105758781123	-329.336446379411	-218.4451192460907	-139.36712092501068	-218.44511924609066	132.24726378591714	
4.447357010125319	-2.1808485301225176	-66.15852163166915	-108.00813633960261	-66.15852163166899	-493.5872711676167	-258.53409689764544	-108.00813633960266	-258.53409689764544	144.33540454118727	
4.5003017364363345	84.69252713373231	-8.272861867969194	-89.33097121342307	-8.272861867969006	-515.3932322129876	-265.824065885913	-89.3309712134231	-265.82406588591306	181.17507931796357	
4.55324646274735	165.46985300968058	55.30640838279857	-97.46471564243538	55.30640838279875	-384.17046304904795	-251.9185124266178	-97.46471564243535	-251.91851242661792	213.62305384551348	
4.606191189058365	215.3429421111318	82.60856141119072	-128.62048993303733	82.60856141119095	-155.67655083325306	-241.917800624782	-128.62048993303728	-241.91780062478222	200.52375370171512	
4.659135915369381	237.63485941074626	49.14613564955165	-164.65555520697188	49.14613564955182	88.14882180109015	-250.77159521923954	-164.65555520697183	-250.77159521923988	113.43113790142071	
4.712080641680397	251.36527024603777	-27.11523721078356	-183.4186518536147	-27.11523721078342	295.9467748645025	-266.79347449466763	-183.41865185361465	-266.793474494668	-31.82397568250745	
4.765025367991413	286.0115696678287	-102.56567979306254	-172.60386425601126	-102.56567979306254	468.2693906293427	-259.6442013335434	-172.60386425601126	-259.6442013335436	-174.60574815673863	
4.817970094302429	374.21966064611763	-148.28535035686406	-140.06307794903694	-148.2853503568641	623.8452967857977	-207.3554551107233	-140.06307794903694	-207.35545511072337	-249.10788279852846	
4.870914820613444	523.262522867211	-158.219397115272	-109.62148241219407	-158.21939711527202	767.4688115661374	-120.08701006883666	-109.6214824121941	-120.08701006883652	-227.04435812009243	
4.92385954692446	693.881189349054	-126.43609895729358	-103.80245232328025	-126.43609895729358	901.4883706586926	-39.70738498957678	-103.8024523232803	-39.707384989576475	-126.35118853413937	
4.976804273235476	826.9380063011793	-50.621540233795	-128.13103543335933	-50.62154023379502	1032.49359657263	-11.041620515650095	-128.1310354333594	-11.041620515649676	10.173189504125475	
5.0297489995464915	897.2453927909305	40.69333838078954	-168.87108866919164	40.69333838078951	1142.7152157952744	-47.45847140608556	-168.87108866919164	-47.45847140608514	139.89104738030912	
5.0826937258575065	927.8253309765701	98.5085006228382	-204.18685488533643	98.50850062283818	1187.7125042069697	-123.19443344631964	-204.18685488533634	-123.19443344631918	235.05221052923008	
5.135638452168522	945.6364362874833	98.22200142960759	-218.02713047949538	98.22200142960759	1144.8244340672163	-196.80619408365305	-218.0271304794952	-196.8061940836526	288.1441329797427	
5.188583178479538	933.3501157026244	54.655883443079574	-204.4057682620304	54.655883443079745	1037.4997840215765	-238.69919984356073	-204.4057682620302	-238.69919984356022	310.46297626380505	
5.241527904790554	835.8715510728334	-2.7629066526963015	-162.58649042012496	-2.762906652695989	899.5941022441909	-241.51506593444276	-162.58649042012462	-241.51506593444225	324.3655662863058	
5.29447263110157	621.4862073458285	-51.982431899505826	-95.4897107339998	-51.98243189950536	744.5762386011877	-215.48316176912894	-95.48971073399937	-215.48316176912843	349.0032281368558	
5.347417357412585	332.7429265422494	-78.13649229370816	-14.097216472677866	-78.13649229370762	582.6068110553249	-177.45662584965163	-14.097216472677417	-177.45662584965103	385.0138563612761	
5.400362083723601	62.091184703873196	-67.76215387132147	64.7703851689794	-67.76215387132093	439.4407186012909	-139.4752313581476	64.77038516897977	-139.47523135814697	412.04411366181625	
5.453306810034617	-129.66005950820153	-15.73717499239244	130.3802771716428	-15.737174992391871	334.46447403320224	-103.675351051	130.380277171643	-103.67535105099941	404.97415349642813	
5.506251536345633	-258.8731637614179	59.9507876935066	183.71461754275344	59.950787693507266	254.68534282589133	-66.86438282343967	183.7146175427535	-66.86438282343907	353.50175140839485	
