# Stress in units of bar (10^5 Pa)
# z	Sxx	Sxy	Sxz	Syx	Syy	Syz	Szx	Szy	Szz
0.0	47.62332104715141	-206.66990514110563	90.14916735328612	-206.669905141106	102.55574172203788	64.63214991881814	90.14916735328605	64.63214991881799	161.25143529220816	
0.0529447263110157	89.48049572292346	-200.62728679638872	92.2531883048357	-200.62728679638906	84.61189001386963	64.99616644066751	92.25318830483548	64.99616644066724	163.2458147888853	
0.1058894526220314	119.81086255640223	-188.96031975414235	92.71104428398661	-188.96031975414263	58.42525443114356	66.82807442251138	92.71104428398624	66.82807442251102	164.3387209880024	
0.15883417893304708	135.75435774480988	-172.40192412381145	90.83008918487789	-172.40192412381168	28.105233463099182	69.73559101657376	90.83008918487744	69.73559101657335	164.69448141497733	
0.2117789052440628	136.66991043529322	-152.0111273730079	86.33464921903723	-152.01112737300804	-0.9937589938395199	72.96990566507199	86.33464921903673	72.96990566507156	164.25153230499393	
0.2647236315550785	124.33261341905822	-129.03802019032068	79.37745928420102	-129.03802019032076	-22.902877195848482	75.62633572141644	79.3774592842005	75.62633572141603	162.73843308952559	
0.31766835786609415	102.53998987868002	-104.80426608181624	70.43462500318162	-104.80426608181624	-32.02810272751151	76.84907049732757	70.4346250031811	76.8490704973272	159.77738550594862	
0.37061308417710986	76.48832147486804	-80.65679924792613	60.16636885724009	-80.656799247926	-23.940430276761816	75.97044235302606	60.16636885723958	75.97044235302576	155.0419849336191	
0.4235578104881256	51.2874455699488	-57.803245058046976	49.302884461745926	-57.803245058046805	3.4217714734856486	72.60538415777853	49.302884461745414	72.60538415777829	148.43068498404995	
0.4765025367991413	31.13496475338316	-37.20175665437707	38.57642544683918	-37.20175665437685	49.52227744114998	66.6433352304573	38.57642544683867	66.64333523045713	140.19320123875184	
0.529447263110157	18.1245244320636	-19.42589440264699	28.715635543390334	-19.42589440264674	110.88868534188853	58.17597561163235	28.715635543389805	58.17597561163224	130.96753872230357	
0.5823919894211727	12.06865538741296	-4.568631137722359	20.442757003875347	-4.568631137722114	181.58751253263543	47.425911570154675	20.442757003874775	47.425911570154604	121.66845062033336	
0.6353367157321883	10.755542855953554	7.623410344967711	14.475283825727235	7.62341034496787	254.14815637603465	34.69571172001805	14.475283825726642	34.695711720018004	113.278898407166	
0.6882814420432041	11.031068920447872	17.670458221134545	11.493729334989059	17.67045822113461	320.79340707820796	20.384437284863818	11.493729334988421	20.384437284863772	106.61528170783767	
0.7412261683542197	9.736119284139612	26.213133650876202	12.064048665806103	26.213133650876117	374.690606776991	5.046036265389851	12.064048665805437	5.046036265389779	102.13455841553593	
0.7941708946652355	5.035598678590606	33.870830677180095	16.54879982393677	33.87083067717987	411.0398852411629	-10.53319892433137	16.54879982393609	-10.533198924331488	99.8748002930802	
0.8471156209762511	-3.1749221013972857	41.266584118485326	25.02645534862781	41.266584118484964	427.4875248007313	-25.320025204683848	25.026455348627124	-25.320025204684036	99.55199754319506	
0.9000603472872668	-13.251784998286151	48.94089628228676	37.19615126167756	48.940896282286246	424.1861126357406	-38.079689288186394	37.19615126167688	-38.07968928818664	100.73135636021684	
0.9530050735982826	-22.49926709158259	57.47601678211558	52.29206492476844	57.476016782114925	403.23459244399976	-47.56886092176621	52.29206492476779	-47.568860921766515	103.00292000923848	
1.0059497999092983	-28.15569232594325	67.30928389955236	69.03654536836771	67.30928389955159	368.13903371920867	-52.78089048488771	69.03654536836709	-52.78089048488809	106.08810070771227	
1.058894526220314	-28.208313100403537	78.79815209040584	85.70261726963884	78.79815209040504	322.9676385294131	-53.179339398638554	85.7026172696382	-53.179339398639	109.8228782515891	
1.1118392525313296	-21.78478409455124	92.09357057953291	100.29502337178107	92.09357057953206	272.18685470075565	-48.84374682992062	100.29502337178045	-48.84374682992114	114.07689378679771	
1.1647839788423453	-9.262530792123442	106.95742556621212	110.87874392028905	106.95742556621128	219.8574405479585	-40.4712625324932	110.87874392028837	-40.47126253249378	118.66734006658595	
1.217728705153361	8.36618487806956	122.81896270640675	115.97165037098955	122.8189627064059	169.81062579874413	-29.20056434353456	115.97165037098884	-29.200564343535213	123.35021984684036	
1.2706734314643766	29.592768845998137	138.72945885179345	114.92785189094064	138.72945885179263	125.09062094993973	-16.31202751555525	114.9278518909399	-16.31202751555598	127.85722406870076	
1.3236181577753925	53.29969761018169	153.4140284453334	108.16085275345253	153.4140284453326	88.08803503123495	-2.9254636865507653	108.16085275345179	-2.925463686551563	131.94324004798855	
1.3765628840864081	78.57591156403757	165.5551396366668	97.12262786566475	165.555139636666	60.13000660091616	10.24123695149881	97.12262786566407	10.241236951497934	135.42627384867885	
1.4295076103974238	105.21885619205933	174.109019398392	84.04095427115327	174.1090193983913	41.9192827869303	22.986232478517874	84.04095427115269	22.986232478516936	138.12841255985367	
1.4824523367084395	133.73602756672108	178.55593577598108	71.4663617704457	178.55593577598052	33.41486968317369	35.52211722035916	71.46636177044527	35.52211722035818	139.80444440603384	
1.535397063019455	165.40525524933147	179.00927370038096	61.757220568779935	179.00927370038045	34.58685842148723	48.26248916504981	61.75722056877966	48.26248916504882	140.10664431112343	
1.588341789330471	201.92676372822118	176.28529759389343	56.58395849565083	176.28529759389306	45.71956294543337	61.54354186155958	56.58395849565072	61.543541861558616	138.65469223534518	
1.6412865156414866	245.03760847940006	171.62727295585051	56.60998909438623	171.6272729558503	67.51560550121536	75.42436000589994	56.609989094386215	75.42436000589906	135.18937763913218	
1.6942312419525023	295.5722461212547	166.28648254984276	61.35625362108742	166.28648254984273	101.11321899969624	89.56461005622542	61.35625362108753	89.56461005622462	129.76534503809623	
1.747175968263518	352.9728194158795	161.38208838699057	69.35285392705843	161.38208838699063	147.63064557144062	103.24531576364537	69.35285392705859	103.2453157636447	122.91362458260268	
1.8001206945745336	415.0234246349089	157.5948447430281	78.48687746961768	157.59484474302826	207.44028866681452	115.48835969859786	78.4868774696179	115.48835969859735	115.70255604072551	
1.8530654208855495	478.3695137118674	155.2934271418642	86.50192804123752	155.2934271418645	279.95306791731207	125.16083811481246	86.5019280412377	125.16083811481211	109.63141463910273	
1.9060101471965651	539.169262422138	154.61041310352817	91.54284002912063	154.61041310352851	362.78548838130854	131.1343606170448	91.54284002912081	131.13436061704462	106.41409255236715	
1.9589548735075808	594.2499445974381	155.58580123803958	92.64241308183239	155.58580123803995	452.3725934172992	132.44278988647105	92.64241308183254	132.442789886471	107.64778893202553	
2.0118995998185967	641.6356899935697	158.1104880493972	89.93394780207964	158.11048804939753	544.1635914731817	128.4176082893742	89.93394780207976	128.41760828937424	114.4131217978327	
2.064844326129612	680.4377966088165	161.78134966481167	84.5753519604361	161.78134966481196	632.9561135528276	118.83624430474964	84.57535196043618	118.83624430474984	126.93006360126913	
2.117789052440628	710.3268599966367	165.73855198499132	78.44906486333284	165.7385519849915	713.7567691598738	104.05205125379106	78.4490648633329	104.05205125379132	144.288976849105	
2.1707337787516434	731.0030420578724	168.64154999657734	73.68662148363855	168.64154999657745	782.0520530244155	85.0277610484509	73.68662148363859	85.02776104845118	164.3972233713328	
2.2236785050626593	741.6370453303066	168.8412288962982	72.19911611039217	168.84122889629828	834.1217809089544	63.29666020447215	72.19911611039218	63.29666020447241	184.20607832582522	
2.276623231373675	741.179077630208	164.78557332331638	75.30066657736657	164.78557332331638	867.330255454065	40.77157763113067	75.30066657736656	40.77157763113089	200.19935391895663	
2.3295679576846906	728.6221935366796	155.49901240802149	83.5036828224943	155.49901240802143	880.1620359714618	19.464243148468686	83.50368282249428	19.464243148468864	209.1467759499697	
2.3825126839957065	703.5604405739632	140.98805699627422	96.46202170695233	140.98805699627417	872.2681516171053	1.1898727549396995	96.4620217069523	1.1898727549398025	208.8733950960297	
2.435457410306722	666.3454298011015	122.24260930313807	112.99586100220418	122.24260930313802	844.2765956864716	-12.682470079219772	112.99586100220418	-12.682470079219724	198.8870184621214	
2.488402136617738	618.1477088821117	101.09070168684943	131.2096925337804	101.09070168684937	797.7015802754489	-21.40453016462025	131.20969253378047	-21.404530164620258	180.64822758843778	
2.5413468629287532	560.3291407383007	79.68688333019635	148.69617989317393	79.68688333019631	734.6068752180994	-24.87228951550916	148.696179893174	-24.872289515509195	157.3888778900063	
2.594291589239769	494.50088918119474	60.03057893933032	162.8034511293054	60.03057893933023	657.6580528907297	-23.519729409691436	162.8034511293055	-23.519729409691514	133.4275768177099	
2.647236315550785	422.37219902722336	43.55824137501915	171.01878895930417	43.558241375019065	570.0164061314658	-18.189679649293886	171.01878895930435	-18.18967964929397	113.27831713658742	
2.7001810418618004	346.16556069024875	30.904476814189707	171.4007884280988	30.904476814189586	475.42464231526236	-9.972499209983535	171.40078842809896	-9.97249920998363	100.68521267588665	
2.7531257681728163	269.1559312710433	21.880555491972096	162.99713917210747	21.88055549197197	378.18736961717656	-0.0786006144823066	162.9971391721076	-0.0786006144824043	97.93202985276788	
2.8060704944838317	195.84575557439322	15.653987586749155	146.06854695076623	15.653987586749002	282.9128703772004	10.237312759648246	146.06854695076638	10.237312759648143	105.60035456966038	
2.8590152207948476	131.60097219372034	10.880972142869236	122.09284504954098	10.880972142869084	193.9060852261867	19.695470955787073	122.09284504954113	19.695470955786973	122.74496875827964	
2.9119599471058635	82.17244759556827	6.220576576806987	93.5056965689938	6.2205765768068275	114.94594109369129	26.998475932518176	93.50569656899391	26.99847593251808	147.3166587514898	
2.964904673416879	51.9609914946837	0.5303302118665343	63.23069964063016	0.5303302118664064	48.43371583441373	30.859595550132678	63.23069964063022	30.859595550132596	176.63148607803626	
3.017849399727895	43.5868856009599	-6.690119513910737	34.14736647317652	-6.690119513910865	-4.514383994189004	30.128633633987075	34.147366473176575	30.128633633987008	207.6830129220744	
3.07079412603891	56.552763691409794	-15.053690801902448	8.643103140931906	-15.053690801902569	-44.02173427516853	24.03161221068111	8.643103140931947	24.03161221068108	237.26387685963635	
3.123738852349926	87.54261828046076	-23.477909462958717	-11.694907677662606	-23.477909462958827	-71.03340980543811	12.459537905571954	-11.694907677662552	12.45953790557196	262.0597735853366	
3.176683578660942	130.60567404740914	-30.38154972501908	-26.203594534298908	-30.381549725019173	-86.97070698368321	-3.7385790441433446	-26.203594534298855	-3.7385790441433144	278.91249923419525	
3.2296283049719574	178.24731033873337	-34.26421016755927	-35.079650094276886	-34.26421016755935	-93.15209563002091	-22.63226342304322	-35.079650094276836	-22.632263423043156	285.3706422418992	
3.2825730312829733	222.708327704392	-34.174097118797015	-39.18843986397039	-34.1740971187971	-91.01219756204716	-41.38088936747934	-39.18843986397032	-41.38088936747923	280.3841453700892	
3.3355177575939887	257.15736232178585	-30.011508772053553	-39.76997478314829	-30.011508772053645	-81.84389470881811	-56.692315459385775	-39.76997478314825	-56.69231545938563	264.9058841625169	
3.3884624839050046	276.72495996842656	-22.54163013986182	-38.12742679087489	-22.54163013986192	-67.04245629332054	-65.53024937032868	-38.12742679087484	-65.53024937032852	242.0717284294974	
3.4414072102160205	279.61904205776693	-13.092720546971844	-35.305398774914785	-13.092720546971918	-48.055634355596595	-65.84169624074153	-35.30539877491475	-65.84169624074134	216.75614112948372	
3.494351936527036	267.1511560662513	-3.202573819606144	-31.8537304072461	-3.2025738196062044	-26.31691294960904	-57.085608186774664	-31.853730407246054	-57.08560818677449	194.50370416966476	
3.547296662838052	243.57850829207797	5.91188847655021	-27.740925752408984	5.9118884765501605	-3.0492245342466617	-40.3796591661667	-27.740925752408934	-40.37965916616653	180.21113008298005	
3.600241389149067	215.1444393622994	13.533905863076612	-22.50408417061717	13.533905863076555	20.91726613626568	-18.193229737182563	-22.50408417061712	-18.19322973718242	176.97213616182134	
3.653186115460083	188.67120338437547	19.433698788184728	-15.63788502465916	19.433698788184714	45.12391179356419	6.209113983516184	-15.637885024659123	6.209113983516303	185.44096716596076	
3.706130841771099	169.79275036680252	23.75775479269135	-7.056778379368614	23.757754792691365	69.12333547254232	29.442690700369138	-7.056778379368573	29.442690700369226	203.90067964461545	
3.7590755680821144	161.6139606999605	26.653502291975386	2.5554770081009632	26.65350229197542	92.15836171262264	48.592444178253324	2.5554770081010005	48.59244417825339	228.9328084636653	
3.8120202943931303	164.34705038049742	28.06089479374297	11.64775944010599	28.060894793743003	113.2755409953254	61.54262780639539	11.647759440106011	61.54262780639543	256.34009346849524	
3.8649650207041457	175.04307157907462	27.637923068290554	18.017968483344706	27.63792306829058	130.65232606551987	67.09667493348013	18.01796848334471	67.09667493348016	282.093871011944	
3.9179097470151616	188.89422534915985	24.819270196089064	19.440288291584007	24.8192701960891	142.40919042105727	64.91811970039798	19.440288291584004	64.918119700398	302.96862298644174	
3.9708544733261775	200.48711097077438	19.297234323098536	14.33289182283717	19.29723432309855	146.43698651831568	55.303265104202126	14.33289182283717	55.30326510420214	316.8238236277037	
4.023799199637193	205.1827145305831	11.072078006243753	2.3197598655987335	11.072078006243792	140.9688950190184	38.98884607632522	2.3197598655987193	38.988846076325245	322.5820883731425	
4.076743925948208	200.54100199498794	0.7449101451519837	-15.551365398672868	0.7449101451519944	124.52649197189277	16.95086215862977	-15.551365398672894	16.950862158629807	320.0656849321333	
4.129688652259224	186.5534822142339	-10.499042885581051	-37.069457320809214	-10.499042885581034	96.45662526091044	-9.721854334692793	-37.06945732080925	-9.72185433469276	309.88069419324165	
4.18263337857024	165.75024247646718	-21.042576244707583	-59.4358984729825	-21.04257624470756	57.61686616945511	-39.839922592621086	-59.435898472982544	-39.83992259262106	293.30366907403294	
4.235578104881256	142.39796113834723	-29.403015562537398	-80.01582965261142	-29.403015562537366	10.562339152933077	-72.0172515425197	-80.01582965261147	-72.01725154251967	272.06615077224785	
4.288522831192272	121.60137715579901	-34.426439028749044	-96.97541205254797	-34.42643902874897	-39.47746522589995	-104.6602996256179	-96.97541205254802	-104.66029962561788	248.01594603967737	
4.341467557503287	107.96993640943211	-35.65553553840229	-109.60932633843977	-35.65553553840222	-84.9176299355851	-136.00950805695757	-109.60932633843983	-136.0095080569576	222.66651274824972	
4.394412283814303	104.98419617752015	-33.643118741569864	-118.27940612543463	-33.64311874156978	-116.62023168952271	-164.25361949573642	-118.27940612543469	-164.25361949573642	196.71522846748462	
4.447357010125319	114.31793484201239	-29.76728636915187	-124.0478461091594	-29.76728636915176	-125.50849910075817	-187.70919897075373	-124.04784610915942	-187.70919897075385	169.91781290542076	
4.5003017364363345	136.16475574946176	-25.947773907107322	-128.14237987968457	-25.94777390710719	-104.78308464788064	-205.04495929692052	-128.1423798796846	-205.0449592969206	141.41268881378318	
4.55324646274735	169.62030073581462	-24.212289553118868	-131.53250764415031	-24.21228955311875	-51.40735812942859	-215.40050359597515	-131.53250764415031	-215.40050359597524	110.45634128162487	
4.606191189058365	213.5356839807132	-25.72636768625224	-134.69871767546164	-25.726367686252125	33.245718066601256	-218.45952697547477	-134.69871767546167	-218.45952697547492	77.36700175977526	
4.659135915369381	266.7217338099978	-30.538177384087675	-137.6868767186067	-30.538177384087575	143.49141193352435	-214.5052784616778	-137.68687671860667	-214.5052784616779	44.21288404866276	
4.712080641680397	328.1843874072455	-37.26279292740563	-140.35380365291	-37.26279292740551	270.8667208009364	-204.5005197506493	-140.35380365290996	-204.50051975064935	14.799842682264364	
4.765025367991413	396.40804652899345	-43.56455367207934	-142.64344121891492	-43.564553672079256	405.6455577556408	-190.16685671234694	-142.64344121891492	-190.16685671234697	-6.062632552053614	
4.817970094302429	468.93226661946693	-46.93486576329728	-144.67724415611409	-46.934865763297225	538.0630403950923	-173.92351069813637	-144.67724415611409	-173.92351069813637	-13.878050523629739	
4.870914820613444	541.7324616420921	-45.61759779311904	-146.59233423646967	-45.61759779311896	659.3248800528045	-158.58820354821657	-146.59233423646964	-158.58820354821648	-5.860672641750199	
4.92385954692446	609.1130982815304	-39.32441914151923	-148.23083360316164	-39.32441914151916	761.9472197512877	-146.81385933953763	-148.23083360316159	-146.8138593395375	18.184742874593567	
4.976804273235476	664.1292017068683	-29.30081162891586	-148.83900361085693	-29.30081162891576	839.8652601928675	-140.3841505094911	-148.83900361085685	-140.38415050949084	55.73285241172552	
5.0297489995464915	699.3785832619491	-17.893201837947252	-146.97094242007051	-17.89320183794714	888.8275094838162	-139.64838356255174	-146.97094242007043	-139.64838356255143	102.21541835293297	
5.0826937258575065	708.2594361683412	-7.6771842129790215	-140.67001178711195	-7.677184212978844	906.3440823510796	-143.3417457113573	-140.67001178711183	-143.34174571135696	152.13533454704475	
5.135638452168522	686.0654177153004	-0.3612369626304144	-127.93479875263515	-0.36123696263021543	892.3536599956426	-148.92437583299466	-127.934798752635	-148.92437583299423	200.1612054415198	
5.188583178479538	630.8366731259102	3.675205715846573	-107.30502122844811	3.6752057158468716	848.961586514519	-153.27675962704697	-107.30502122844794	-153.2767596270465	241.83990988297438	
5.241527904790554	544.1709708902542	5.490675290044031	-78.37505056337629	5.490675290044322	780.2939298347292	-153.5697907852674	-78.3750505633761	-153.5697907852669	273.8647206796968	
5.29447263110157	431.04062955743274	6.92739754897026	-42.02311282526257	6.927397548970665	691.7808465812557	-147.9456887034745	-42.02311282526237	-147.94568870347396	293.9473036992777	
5.347417357412585	299.3242058516342	9.798658653661889	-0.3391228781445612	9.798658653662315	589.1623653724549	-135.85451677195402	-0.3391228781443729	-135.85451677195346	300.5894985307334	
5.400362083723601	158.70279763864735	14.880542221242969	43.715188698889065	14.880542221243466	477.92495328702705	-118.01524671428729	43.71518869888922	-118.01524671428672	292.99291871551094	
5.453306810034617	19.42257794096733	21.492509379878697	86.75455132262377	21.492509379879138	362.74403011685246	-96.10393528218346	86.75455132262391	-96.10393528218289	271.18726635151984	
5.506251536345633	-109.16622753112559	27.434875389893726	125.4968190769691	27.434875389894152	247.7001794514469	-72.32799592177221	125.49681907696919	-72.32799592177163	236.28982104774335	
