# Stress in units of bar (10^5 Pa)
# z	Sxx	Sxy	Sxz	Syx	Syy	Syz	Szx	Szy	Szz
0.0	115.36156342884132	48.30957969303893	-41.722865695370686	48.309579693038856	223.70944773471285	145.16259413574858	-41.722865695370174	145.16259413574906	180.34261171262	
0.05284343953333595	76.73123112919062	17.830843274045428	-50.44006613172289	17.830843274045023	244.14376917392724	136.10476465640173	-50.44006613172243	136.10476465640238	175.65783148753886	
0.1056868790666719	32.818687708781226	-5.997325232662405	-61.13193680273481	-5.9973252326631155	238.86068703091942	125.36638159210784	-61.13193680273448	125.36638159210857	166.3619615854819	
0.15853031860000785	-8.87955125037925	-22.08155629856072	-71.76208257333154	-22.081556298561758	214.82809137024054	114.21558520783725	-71.7620825733314	114.2155852078379	153.43559507832617	
0.2113737581333438	-41.89320547487804	-30.7968621937807	-80.1162309791813	-30.796862193781955	182.55373301503755	103.51442025223815	-80.11623097918138	103.51442025223866	138.7171928210865	
0.2642171976666797	-63.055122606970166	-33.247293921913844	-84.50023148490683	-33.247293921915265	150.22265312037658	93.34213735284538	-84.50023148490716	93.34213735284573	124.29042973092764	
0.3170606372000157	-72.96704309937977	-30.400376992838673	-84.32050616597533	-30.400376992840137	119.75077277404995	83.19501834287259	-84.3205061659759	83.19501834287284	111.70210795941898	
0.3699040767333517	-74.37407354902106	-23.150121101961496	-80.11039633697257	-23.15012110196298	86.684626370947	72.64048880614104	-80.11039633697332	72.64048880614128	101.44485510056862	
0.4227475162666876	-69.10549782925051	-12.617013121455187	-72.91273558679116	-12.617013121456651	44.81895633978383	61.961509983928266	-72.91273558679205	61.96150998392858	93.0147834454184	
0.47559095580002353	-56.026425174701274	-0.3738182920455273	-63.37300075729031	-0.37381829204689154	-8.207094796266887	52.362713529307385	-63.373000757291265	52.362713529307804	85.43596349543799	
0.5284343953333595	-32.041954070520404	12.091754301738504	-51.2242091009647	12.09175430173729	-67.38823213133738	45.67858781446314	-51.22420910096564	45.67858781446366	77.90886324990933	
0.5812778348666955	5.15744771722337	24.061229809055433	-35.571021809000264	24.06122980905441	-121.80672274653692	43.75717617345416	-35.57102180900114	43.75717617345475	70.20574594780157	
0.6341212744000314	53.914672351812214	35.98039614910688	-15.861806323165345	35.98039614910611	-160.00057325455208	47.83055547044553	-15.861806323166155	47.83055547044615	62.7060739502557	
0.6869647139333673	108.13730527081579	48.83113828304374	7.070027471892295	48.83113828304322	-175.48420989979527	57.95633843847287	7.070027471891569	57.95633843847349	56.18622829765627	
0.7398081534667034	159.0961137067061	63.15830225495888	30.651319801442163	63.15830225495861	-169.70387806610256	72.73189778930471	30.65131980144154	72.73189778930531	51.511584636463624	
0.7926515930000393	198.69800625082954	78.17581729993053	51.20473161146157	78.17581729993046	-150.58287455011796	89.4293335803186	51.20473161146107	89.42933358031914	49.311410718632445	
0.8454950325333752	221.56587560917083	92.01672270601068	65.3570752790268	92.01672270601075	-128.95820399296417	104.73145951307586	65.35707527902647	104.73145951307633	49.727280131263456	
0.8983384720667111	225.9602725737887	102.79176698922576	71.47601461066765	102.79176698922592	-114.30056511303071	115.88926815087049	71.4760146106675	115.88926815087088	52.29377043642569	
0.9511819116000471	212.77310236099487	110.31963390316088	70.25262631142886	110.31963390316109	-111.54349705349281	121.84235855636334	70.25262631142891	121.84235855636355	55.91679510396343	
1.004025351133383	184.32149525143004	116.78117626461088	63.96445418365711	116.7811762646112	-119.96683169267534	123.58642384751464	63.964454183657374	123.58642384751465	58.98287666001016	
1.056868790666719	143.29438319430636	126.2265538678611	54.761657286859204	126.2265538678615	-134.07858376075717	123.46497745933695	54.76165728685959	123.46497745933672	59.646629472401514	
1.109712230200055	92.1637952069656	142.37451563658794	43.05246962272276	142.3745156365883	-146.19788196803398	123.74606455222951	43.052469622723194	123.7460645522291	56.33881342786499	
1.162555669733391	34.145969197310606	165.89765349228674	27.126710410205675	165.89765349228708	-149.9026421528231	125.24403663091961	27.126710410206098	125.24403663091911	48.39598594883306	
1.215399109266727	-26.446535991266593	192.94934600044434	4.337036932513193	192.94934600044456	-142.72419751052752	126.75447662936054	4.3370369325135485	126.75447662936004	36.4660297307924	
1.2682425488000628	-83.31199107935383	215.8111373732575	-26.94305417057707	215.81113737325757	-126.32358450587499	125.51695537090568	-26.943054170576797	125.51695537090526	22.362556594878086	
1.3210859883333987	-128.8776323858274	225.8268473242127	-65.90647736445631	225.82684732421262	-104.8297426047859	118.30287376397112	-65.90647736445614	118.30287376397087	8.362654117619057	
1.3739294278667347	-155.52678451052236	216.86709099218493	-109.33144276984493	216.86709099218479	-81.0405555036977	102.52315427194179	-109.33144276984484	102.52315427194168	-3.614296300686773	
1.4267728674000706	-157.37209449707655	187.76175890221856	-152.83056261475866	187.7617589022185	-53.895243390173945	76.98992686723983	-152.83056261475863	76.98992686723989	-12.460588290590593	
1.4796163069334067	-132.1300036937231	142.66148669036303	-192.46875364608604	142.6614866903631	-18.063335108936435	42.37149715745567	-192.46875364608604	42.37149715745585	-17.626103159606767	
1.5324597464667427	-81.82739284411228	89.11890173670292	-225.70793659324278	89.11890173670298	33.50925550865004	1.5340813802286455	-225.70793659324283	1.5340813802288729	-18.280844106125592	
1.5853031860000786	-11.810349575635556	35.47863583533625	-251.26978523625965	35.47863583533638	106.46656324295908	-40.46532426736905	-251.26978523625968	-40.46532426736883	-12.44506944540294	
1.6381466255334145	71.12959716821639	-11.721291757395829	-268.2415154909192	-11.721291757395727	201.97382936914363	-77.12702595296749	-268.24151549091926	-77.1270259529673	3.198677357729297	
1.6909900650667504	161.1373694834282	-48.86251459326105	-275.20191582489855	-48.862514593261	316.0073739858298	-102.2400481295337	-275.2019158248986	-102.2400481295336	32.32809659110292	
1.7438335046000863	254.66303040919792	-75.1811125193001	-270.1930349046447	-75.18111251930007	439.6551155105531	-111.91034236580633	-270.1930349046449	-111.91034236580632	76.94871718503968	
1.7966769441334223	350.33769443031656	-92.0198956983757	-251.84697015342604	-92.01989569837562	561.2038887284874	-105.7676254705274	-251.84697015342618	-105.76762547052752	135.27047925278603	
1.8495203836667582	447.57362506033394	-101.9238957987414	-221.04384430224894	-101.92389579874117	668.7999009303439	-86.63525198743207	-221.04384430224906	-86.6352519874323	200.89829634414804	
1.9023638232000941	544.6100849176875	-107.95631665256874	-181.8725382851155	-107.95631665256846	753.6566063470628	-58.99269554071413	-181.87253828511572	-58.992695540714465	264.1860366805078	
1.9552072627334303	636.7734989252813	-112.39168676494316	-140.8738042233667	-112.39168676494273	811.409310685417	-27.412311502480076	-140.87380422336693	-27.412311502480538	315.36646414537506	
2.008050702266766	716.1893560998428	-115.42543035750728	-104.60596362108626	-115.42543035750674	841.278795781127	4.328397272589358	-104.60596362108649	4.328397272588838	347.86431226190683	
2.060894141800102	774.469912870092	-114.78181920631303	-76.89660374287281	-114.78181920631252	844.6701233626571	33.59226157938169	-76.89660374287308	33.59226157938113	360.2158631674848	
2.113737581333438	806.942513340479	-106.88703585573136	-57.56244238413268	-106.88703585573086	824.3580512739294	59.22977577195961	-57.56244238413295	59.229775771959055	355.85992335614395	
2.166581020866774	816.2412612511009	-89.28780742061984	-43.32491069060764	-89.28780742061939	786.1729474886932	81.79420904768283	-43.32491069060791	81.7942090476823	341.1660217674114	
2.21942446040011	811.7630709869295	-62.44817729486503	-30.09652023306988	-62.44817729486462	739.7515422735444	102.91297577989528	-30.096520233070173	102.91297577989485	322.64127502110705	
2.272267899933446	804.6091129399342	-29.886337747745884	-15.002360781198849	-29.88633774774556	696.2836796867546	123.55212002048367	-15.002360781199155	123.55212002048333	304.5130229055189	
2.325111339466782	801.3239626445858	3.467319758907024	3.0755701370886737	3.4673197589073013	663.833681538902	142.08219987922436	3.0755701370883557	142.0821998792241	287.51694429126235	
2.3779547790001176	800.2722436837017	32.95758179003519	24.18434769932596	32.95758179003542	643.094031923805	153.70103626609406	24.18434769932565	153.70103626609387	269.30861162510246	
2.430798218533454	793.7055446049983	54.922425405258096	48.1441752052545	54.92242540525833	627.0113722035111	151.95859146986152	48.14417520525421	151.95859146986135	246.2458193060533	
2.4836416580667895	772.775760375074	66.61400813231508	74.63748450730968	66.61400813231528	604.2475528944778	131.7009535640996	74.63748450730941	131.70095356409945	215.6276652336585	
2.5364850976001256	733.5139516406348	66.22165935428396	102.54330106283986	66.22165935428413	564.208502379889	91.88315044799616	102.54330106283962	91.88315044799603	177.52864602783694	
2.589328537133462	678.7989764457825	53.67029504043626	129.4324953095902	53.6702950404364	500.9644960585374	36.962888782562146	129.43249530958997	36.96288878256203	135.55441288384253	
2.6421719766667975	616.7088914185003	31.334496171737385	151.84969797403136	31.334496171737463	415.44647691779346	-23.535361950856625	151.84969797403113	-23.53536195085673	96.37082719243762	
2.6950154162001336	555.8384293582662	4.3902127552957495	166.28628055337714	4.390212755295799	314.79770027815067	-77.31261992425823	166.2862805533769	-77.3126199242583	67.8851712720446	
2.7478588557334693	500.9496371937453	-20.367043817799996	170.1482748990263	-20.367043817800024	210.13777505754976	-112.95111438865459	170.1482748990261	-112.95111438865464	56.31494043919341	
2.8007022952668055	451.07093634900446	-36.34947986278834	162.33538093997183	-36.34947986278836	112.85596225014967	-123.83403834883289	162.33538093997169	-123.83403834883296	63.04306557507176	
2.853545734800141	400.4153737767633	-39.08267055410554	143.37561423062076	-39.0826705541056	31.97389747227237	-110.68889301638707	143.3756142306206	-110.68889301638713	82.92359655875028	
2.9063891743334773	341.4671675031565	-27.025064023091844	115.62084106561308	-27.02506402309183	-26.885558107494298	-81.31115553247413	115.62084106561298	-81.31115553247419	105.59917612410473	
2.9592326138668135	268.70293325531395	-0.7824312876847159	83.39150669768726	-0.7824312876847728	-60.400895381094536	-47.3530409772455	83.39150669768719	-47.35304097724557	119.82209060210926	
3.012076053400149	181.1021902810228	38.13831774155831	52.49529856916601	38.138317741558254	-66.64388466926167	-19.715777209750115	52.49529856916595	-19.715777209750165	118.64235619314829	
3.0649194929334853	83.09990810408769	88.10080475368093	28.66697396285267	88.10080475368088	-45.447857293921935	-4.996417329165064	28.666973962852595	-4.996417329165114	102.42172127234383	
3.117762932466821	-17.019183585969145	146.88773095685622	15.21789198634702	146.88773095685616	-0.9132731654108852	-4.430351816508182	15.217891986346942	-4.430351816508245	77.89249384628226	
3.170606372000157	-109.838166516439	210.38311212843405	11.185927239380922	210.38311212843396	56.36176550276602	-15.168961967915955	11.185927239380826	-15.168961967916026	54.24032526018532	
3.223449811533493	-188.04238946240864	272.07942696695244	11.359600265642502	272.0794269669524	109.89902327242908	-32.40693314809106	11.35960026564241	-32.406933148091134	38.93106180571555	
3.276293251066829	-247.8143985350978	323.88781229152823	8.633768123930611	323.8878122915282	141.81233242343149	-50.991462153921525	8.63376812393053	-50.991462153921596	35.498183942782006	
3.3291366906001647	-288.35872689536507	358.2619857450509	-2.464812916098051	358.2619857450508	139.18997198825053	-66.2357948477507	-2.4648129160981185	-66.23579484775075	43.67975335253065	
3.381980130133501	-310.714434258032	370.4225907392349	-23.050168382346854	370.4225907392349	98.83692296240552	-74.56249094532396	-23.050168382346875	-74.56249094532402	60.601723790699126	
3.434823569666837	-315.9617459445122	359.31797409897416	-49.40654610252337	359.3179740989741	28.093909669455165	-74.41457960913687	-49.40654610252335	-74.41457960913692	81.79780813765554	
3.4876670092001727	-304.9114145641602	327.5460538267226	-75.00542063745665	327.54605382672264	-58.54240191718667	-67.05319007981909	-75.00542063745658	-67.0531900798191	101.81949091029094	
3.540510448733509	-279.32023140725516	280.3749637414828	-93.66467163988438	280.3749637414828	-145.43837275435396	-56.38125811517966	-93.6646716398843	-56.38125811517966	114.88288938569643	
3.5933538882668445	-242.96314090998823	224.43141014242138	-101.76205200852783	224.43141014242158	-221.08683576738778	-47.255856083365316	-101.76205200852776	-47.25585608336529	115.86393139062392	
3.6461973278001807	-201.65680260952774	166.09946807874186	-98.39601018344602	166.09946807874204	-281.09277458041345	-42.8493652104616	-98.39601018344595	-42.84936521046154	101.7799802344981	
3.6990407673335164	-160.7960296504044	109.80151095230495	-83.84832190864493	109.8015109523052	-327.0425588460336	-42.80542183603495	-83.84832190864489	-42.805421836034874	73.22064522820443	
3.7518842068668525	-122.73039483362828	56.98568711993422	-58.20423683658617	56.985687119934454	-362.5921900634322	-43.58481476193381	-58.204236836586134	-43.584814761933714	35.00365812436628	
3.8047276464001882	-85.99330735885556	6.372137874964752	-21.572328389896903	6.372137874964996	-389.3759867140356	-41.0030802841916	-21.57232838989686	-41.00308028419148	-4.573179504440693	
3.8575710859335244	-47.872737720928995	-44.362384197496006	24.121146484845447	-44.36238419749575	-404.2814306531204	-33.29413830037806	24.121146484845468	-33.294138300377945	-36.036089725273875	
3.9104145254668605	-8.092397346152097	-96.02251748713832	73.45009767542967	-96.0225174871381	-400.378716995314	-22.56119615897025	73.45009767542976	-22.561196158970137	-51.712003300811084	
3.9632579650001962	29.37441430261221	-146.21728395921102	117.91013555813127	-146.2172839592108	-370.2562413153583	-13.773893720137018	117.91013555813134	-13.773893720136911	-47.95944081613641	
4.016101404533532	58.085045066710514	-189.76662512865786	148.7656761539629	-189.76662512865767	-310.9324298647216	-12.210891873354644	148.76567615396297	-12.210891873354566	-25.74570107474294	
4.068944844066868	73.93918911594457	-220.8143820346433	160.60441717079112	-220.81438203464307	-226.9689229354144	-21.254462701878072	160.60441717079118	-21.254462701878	10.269475733599208	
4.121788283600204	79.58968425023012	-235.69118504537863	153.21012269219716	-235.69118504537846	-130.01499719474225	-41.609234876849555	153.21012269219722	-41.60923487684947	53.29177186594747	
4.17463172313354	85.52371968415267	-234.42199953151226	130.74895840691778	-234.42199953151214	-35.037678859582144	-71.47667594269772	130.74895840691784	-71.47667594269765	95.97222811708157	
4.227475162666876	105.9975263571547	-220.3792834633065	99.13261862457038	-220.37928346330648	44.54297007216793	-106.68418547230554	99.13261862457037	-106.6841854723055	131.9205989168283	
4.280318602200212	151.06811191137945	-198.24965832853445	63.68578663675521	-198.24965832853454	99.69012777343966	-140.6928773177169	63.68578663675516	-140.69287731771686	157.17582974340124	
4.333162041733548	219.3473643750151	-172.04588586546436	28.2412002797901	-172.04588586546453	126.0722178702452	-165.40516195355988	28.24120027979002	-165.4051619535599	171.21592517081936	
4.386005481266884	295.8938296294049	-144.3943137545631	-4.728919360570215	-144.39431375456329	123.63276889301738	-173.61456938102864	-4.728919360570318	-173.61456938102873	176.81000514839292	
4.43884892080022	358.6302509885129	-116.89168039948896	-33.95409264182693	-116.89168039948925	96.39813662816329	-162.35999580863023	-33.954092641827046	-162.35999580863034	178.4411862527893	
4.4916923603335555	390.03673471169793	-90.91600845360584	-59.65356353719123	-90.91600845360617	53.79847208011651	-135.06661336956788	-59.65356353719133	-135.06661336956802	179.9745017918633	
4.544535799866892	387.9493086265155	-67.77400772704844	-83.59254224210531	-67.77400772704875	10.18753906531262	-100.8031434022615	-83.59254224210541	-100.80314340226171	182.82063846639556	
4.597379239400228	368.50668113471164	-48.150156551329594	-108.0773875439003	-48.15015655132998	-17.744146587710844	-70.63436209028188	-108.07738754390037	-70.6343620902821	185.66703048297188	
4.650222678933564	358.4039459557065	-31.79503441639939	-133.96836555712144	-31.795034416399766	-16.295597020077714	-52.95365774030344	-133.9683655571215	-52.9536577403037	185.8005488754471	
4.7030661184669	381.50420378192507	-17.86655716083186	-159.01030271849328	-17.86655716083228	20.59725962333706	-50.143749877536536	-159.01030271849334	-50.14374987753679	181.16683212844066	
4.755909558000235	446.3770908866578	-5.659416051754917	-178.06445535000208	-5.659416051755343	89.76411560539094	-57.99714948343146	-178.0644553500021	-57.997149483431784	171.6865944866451	
4.808752997533571	542.7415276351568	5.0474550890697145	-185.35778741687227	5.047455089069288	179.77192106627874	-67.75677078532439	-185.35778741687233	-67.75677078532479	159.04150644869668	
4.861596437066908	647.4323094177138	14.227126012661287	-177.4632661254359	14.227126012660918	274.71044150926883	-69.61618809632297	-177.4632661254359	-69.61618809632343	145.07547487932365	
4.914439876600244	735.5773750592348	22.09628239932819	-155.24608616225322	22.09628239932793	358.0194970376667	-56.14683616548166	-155.24608616225325	-56.14683616548215	130.0646277000026	
4.967283316133579	790.114680578035	28.714021704323585	-123.84320329925731	28.714021704323542	416.1708953031899	-24.58074329574859	-123.84320329925734	-24.580743295749052	112.17967024755775	
5.020126755666915	805.0985733554437	32.78809010952003	-91.11159567987791	32.78809010952007	441.8812370938879	22.613120831713697	-91.11159567987792	22.613120831713285	88.80218134167743	
5.072970195200251	783.29523532745	30.91184875582676	-65.45821112579807	30.911848755826874	436.46672537837014	78.71650137843429	-65.45821112579814	78.71650137843399	58.80924303072979	
5.125813634733587	731.8152123269332	18.339634749324972	-53.64354969606853	18.339634749325104	409.5141407268435	134.81846047718957	-53.64354969606866	134.81846047718938	24.156348237009823	
5.178657074266924	658.798076677532	-8.065099638418701	-58.66158637094593	-8.065099638418616	374.22013589787383	182.2780738069327	-58.66158637094617	182.27807380693258	-10.662236444841428	
5.231500513800259	572.3057455466806	-47.62549771825242	-78.19341456500979	-47.625497718252404	339.8601899945722	214.92016817185223	-78.19341456501012	214.9201681718522	-40.9460596018748	
5.284343953333595	479.385258907044	-96.8731736911254	-104.59624443241603	-96.87317369112543	303.9736205901077	230.258651552412	-104.59624443241648	230.25865155241198	-64.22958346814585	
5.337187392866931	385.2223786680356	-152.828320206636	-127.27086545204988	-152.828320206636	251.1348700684053	229.21287750980946	-127.2708654520504	229.2128775098095	-80.9617026891273	
5.390030832400267	292.5435294347201	-215.30994011997893	-136.84092234886828	-215.30994011997888	160.7649905504606	214.57504628055557	-136.84092234886884	214.57504628055563	-93.1386919793691	
5.4428742719336025	203.66071834481284	-283.46335744902495	-129.11081141644132	-283.46335744902456	22.67285855075079	189.35224460468623	-129.1108114164419	189.35224460468635	-102.41432236006118	
5.495717711466939	123.43038823031594	-348.8217434274813	-106.57493963805075	-348.8217434274808	-148.98179937805213	156.12171907503813	-106.5749396380512	156.1217190750383	-109.47921646596109	
