# Stress in units of bar (10^5 Pa)
# z	Sxx	Sxy	Sxz	Syx	Syy	Syz	Szx	Szy	Szz
0.0	76.95576113352217	61.960731043717495	-53.75493064006551	61.960731043717274	137.3133342215512	127.6893007832587	-53.75493064006543	127.689300783259	158.81576779415977	
0.05284343953333595	59.09945434635561	45.31473100779684	-56.40248964278934	45.314731007796425	145.91314114889013	123.38345222870139	-56.40248964278929	123.38345222870174	154.93295145931728	
0.1056868790666719	40.53661805602447	30.31981311521769	-59.113127957183	30.319813115217094	147.66037914285897	117.53438102983304	-59.113127957183	117.53438102983344	149.44899750775954	
0.15853031860000785	22.790444206729802	17.891266586008612	-61.41384973711841	17.891266586007866	142.12519719056593	110.58975003516952	-61.41384973711848	110.58975003516993	142.58237366992677	
0.2113737581333438	7.495318591642665	8.6159546095964	-62.79561911869258	8.615954609595509	129.47583788092652	103.02395253591224	-62.79561911869274	103.02395253591267	134.63963261204148	
0.2642171976666797	-3.91725393855922	2.810172199500471	-62.77830793376904	2.8101721994994726	110.42837963458977	95.31857305616701	-62.77830793376931	95.31857305616744	125.9816309158537	
0.3170606372000157	-10.269976258281503	0.4698538868366313	-60.96158766137647	0.4698538868355726	86.06630090052735	87.95444761382757	-60.961587661376846	87.95444761382802	116.97759054709272	
0.3699040767333517	-10.822550991784397	1.3908773146345936	-57.07736070613114	1.3908773146334887	57.93297314659806	81.39854858418008	-57.0773607061316	81.3985485841805	107.97390345396401	
0.4227475162666876	-5.292718588478365	5.220728938989829	-51.028884461256126	5.220728938988735	27.661428290862467	76.09003345707985	-51.028884461256666	76.0900334570803	99.26287189352895	
0.47559095580002353	6.03742808813432	11.455520127851578	-42.9052686954121	11.455520127850548	-2.9547326091980466	72.39713907491998	-42.905268695412694	72.39713907492043	91.07921729231802	
0.5284343953333595	22.348936931575366	19.630962797200198	-32.98946600271352	19.630962797199253	-32.1979107446537	70.58231203287515	-32.989466002714146	70.5823120328756	83.60057973297768	
0.5812778348666955	42.25986533546743	29.25804403948488	-21.74879082162318	29.258044039484034	-58.565382795134255	70.76606349924631	-21.748790821623814	70.76606349924677	76.94885598969955	
0.6341212744000314	64.02636421972124	39.93239520407556	-9.821300384236261	39.93239520407483	-80.97897077190687	72.88940339034967	-9.821300384236856	72.88940339035015	71.19026484470614	
0.6869647139333673	85.46264823268433	51.322581391816556	2.033031535906285	51.32258139181596	-98.84676665878455	76.71905594460453	2.0330315359057396	76.71905594460497	66.33023039773727	
0.7398081534667034	104.48501093399923	63.13513971428376	12.97554886584354	63.135139714283305	-112.0201755314041	81.86778671423693	12.975548865843072	81.86778671423735	62.31556572980683	
0.7926515930000393	118.94339284779575	75.21453942379236	22.15667276691883	75.21453942379205	-120.94698989662056	87.81830372214861	22.156672766918454	87.81830372214898	59.01330962665678	
0.8454950325333752	127.1640625343704	87.4164946952207	28.783577024571148	87.41649469522054	-126.19238685693412	93.98989515962177	28.783577024570878	93.98989515962205	56.21760375875862	
0.8983384720667111	128.0642472159384	99.6422610377428	32.17724408135557	99.64226103774271	-128.58801611435536	99.78723833534507	32.1772440813554	99.7872383353453	53.64376204933367	
0.9511819116000471	121.17124402162736	111.73607751548522	31.791333653219517	111.7360775154852	-128.76260190881925	104.66019437782109	31.79133365321944	104.66019437782123	50.98002572120955	
1.004025351133383	107.03184919500869	123.4039766841951	27.260530613331085	123.40397668419521	-127.01302969002509	108.11482907691887	27.26053061333111	108.11482907691894	47.93213260926205	
1.056868790666719	86.86866765923193	134.22380063664355	18.40486708844867	134.2238006366437	-123.20337989143074	109.71025483791304	18.40486708844877	109.71025483791303	44.28617587593846	
1.109712230200055	62.61762152881276	143.4943434631663	5.249491814393663	143.49434346316644	-116.93785800194838	109.04423955600646	5.249491814393798	109.0442395560064	39.95357624301796	
1.162555669733391	36.892215081061494	150.39144768546902	-11.958190958932542	150.39144768546916	-107.38027287918526	105.75020848507353	-11.95819095893237	105.75020848507339	35.043617307979126	
1.215399109266727	12.632696159957181	153.91132191935247	-32.73609825863777	153.9113219193526	-93.60650294068267	99.5403018057792	-32.73609825863758	99.54030180577907	29.884358835810392	
1.2682425488000628	-7.164246646193622	153.1024319029954	-56.350753321532665	153.10243190299548	-74.41353755768851	90.24236991598072	-56.35075332153248	90.24236991598059	25.031884604703404	
1.3210859883333987	-19.5908312446589	147.2252356053187	-81.82126514713062	147.2252356053188	-48.73944962290557	77.86794585271605	-81.82126514713043	77.86794585271593	21.24655406718245	
1.3739294278667347	-22.237980167683276	135.92979489722984	-107.94951521370754	135.92979489722995	-15.609846179130614	62.697871000835676	-107.9495152137074	62.69787100083559	19.428155401709773	
1.4267728674000706	-13.379289275603995	119.3915339482911	-133.38442239487944	119.3915339482912	25.643669668678214	45.3394272457265	-133.38442239487935	45.339427245726455	20.54736169169542	
1.4796163069334067	7.975667421709932	98.28633099244178	-156.6980169942466	98.28633099244185	75.37752613918256	26.751987814155875	-156.69801699424653	26.751987814155846	25.5377359645554	
1.5324597464667427	41.89031650975211	73.765956107618	-176.5198654727399	73.76595610761807	133.41108244962305	8.181938052026087	-176.5198654727399	8.181938052026084	35.17681928889413	
1.5853031860000786	87.5774101864993	47.36930019665459	-191.66383830695852	47.369300196654734	198.7758535195932	-8.965520026901732	-191.66383830695852	-8.96552002690173	49.94254929021706	
1.6381466255334145	143.4796438081232	20.687734268857735	-201.23111949213126	20.68773426885786	269.83490988900223	-23.274857492298576	-201.23111949213128	-23.274857492298572	69.89294866306992	
1.6909900650667504	207.5135133536737	-4.7042930710264095	-204.72024196852746	-4.70429307102626	344.2563116998757	-33.51029695289562	-204.72024196852755	-33.510296952895644	94.57892830402949	
1.7438335046000863	277.0554272917848	-27.498483507267764	-202.07458072744637	-27.49848350726758	419.0263652046284	-38.780879321579356	-202.07458072744646	-38.78087932157944	123.02164912796617	
1.7966769441334223	349.33329822352334	-46.6396357829731	-193.66727854278452	-46.63963578297292	490.89979421143437	-38.666103062353315	-193.66727854278463	-38.66610306235343	153.75584459548574	
1.8495203836667582	421.4614781765026	-61.462193524504556	-180.26444247871254	-61.462193524504315	556.6081908410893	-33.236532598557055	-180.26444247871268	-33.23653259855723	184.97518661725678	
1.9023638232000941	490.7460629809867	-71.59524273579424	-162.8927159910993	-71.595242735794	613.3071802009124	-23.049055603163946	-162.8927159910995	-23.049055603164184	214.72472662136255	
1.9552072627334303	554.6972399523876	-76.92854285246648	-142.71430138372892	-76.92854285246618	658.807419052803	-9.057380928506566	-142.71430138372912	-9.057380928506847	241.12904197678884	
2.008050702266766	611.3362680465726	-77.55026609928981	-120.85307221752424	-77.5502660992895	691.8247969484837	7.506867367464669	-120.8530722175245	7.506867367464342	262.6221919588032	
2.060894141800102	659.1470864381056	-73.83243967853063	-98.24631173854125	-73.8324396785303	712.0042107451252	25.254340390293507	-98.2463117385415	25.254340390293162	278.0992721987081	
2.113737581333438	697.2519282531123	-66.27118447977028	-75.58422446419796	-66.27118447976994	719.9133361001628	42.74019474243292	-75.5842244641982	42.740194742432564	287.0030490273613	
2.166581020866774	725.2949432799535	-55.6210544714229	-53.27261595495136	-55.62105447142258	716.6881972066003	58.53335493483419	-53.27261595495163	58.533354934833824	289.2885358055403	
2.21942446040011	743.318644443885	-42.86260192380033	-31.479582929939948	-42.86260192380002	703.7743712284757	71.29841627333847	-31.479582929940232	71.29841627333813	285.33815719494555	
2.272267899933446	751.6750888288581	-29.124831365608337	-10.225839457088787	-29.124831365608035	682.5446156725254	79.87288612376574	-10.225839457089064	79.87288612376543	275.85132136473914	
2.325111339466782	750.917690241267	-15.64923996954876	10.48659115177249	-15.649239969548482	654.2108115951071	83.35983628883312	10.48659115177221	83.35983628883285	261.73736479169077	
2.3779547790001176	741.6176380978653	-3.5740981978026625	30.575914584979426	-3.574098197802435	619.5609476704615	81.24167365165636	30.575914584979145	81.24167365165607	244.05243064205334	
2.430798218533454	724.2726599862987	6.17650163744446	49.7764416333116	6.176501637444666	578.9833079326465	73.51015015374486	49.77644163331133	73.51015015374463	223.93121912867858	
2.4836416580667895	699.4637503585926	13.039080603905411	67.62151216823924	13.039080603905585	532.854941283482	60.724024676074656	67.62151216823897	60.72402467607447	202.5665030755584	
2.5364850976001256	667.6956001298659	16.97860866479306	83.47954478166432	16.9786086647932	481.49535431174536	44.019739567995536	83.47954478166406	44.01973956799537	181.1628559992397	
2.589328537133462	629.5287415617053	18.488964491707648	96.61253632943445	18.488964491707712	425.7859131261215	25.012189785770545	96.61253632943422	25.012189785770396	160.87129454675298	
2.6421719766667975	585.5205744140594	18.6125996555395	106.29745604450227	18.61259965553957	367.0606322292491	5.5805443450105745	106.29745604450204	5.580544345010446	142.67423625032532	
2.6950154162001336	536.1424369287887	18.73710033619615	111.9626010998293	18.737100336196196	307.2753765005415	-12.416663476096065	111.9626010998291	-12.416663476096183	127.24574893711727	
2.7478588557334693	481.93077319926664	20.507533042962905	113.30375622069229	20.507533042962912	248.88678269443537	-27.44176511220376	113.3037562206921	-27.441765112203843	114.87202675700297	
2.8007022952668055	423.321558619029	25.491955716918245	110.34689991739961	25.49195571691825	194.62909474897646	-38.516344769628894	110.34689991739943	-38.51634476962899	105.43396736332949	
2.853545734800141	360.8617898580411	34.98893631164809	103.47216543714312	34.9889363116481	146.9633764223302	-45.380319411149735	103.47216543714296	-45.38031941114983	98.45036345913579	
2.9063891743334773	295.173581922846	49.82746220807557	93.36885273743272	49.82746220807549	107.74480151044433	-48.45493881127856	93.3688527374326	-48.45493881127862	93.2208179467656	
2.9592326138668135	227.19537425067824	70.13369953226868	80.89250725713357	70.13369953226865	77.98927696565099	-48.68286493018603	80.89250725713345	-48.68286493018609	89.02054266800984	
3.012076053400149	158.1730758324619	95.36173389608922	66.9284414108026	95.36173389608916	57.407907167361486	-47.28990014258903	66.92844141080249	-47.2899001425891	85.28369047990626	
3.0649194929334853	89.81270841191504	124.19192200946574	52.28281247498929	124.19192200946566	44.69467257529054	-45.46827234585821	52.28281247498917	-45.46827234585828	81.73357745737519	
3.117762932466821	24.05806183850667	154.7699334335271	37.57680333488696	154.76993343352703	37.30292112069269	-44.149905817039794	37.57680333488687	-44.14990581703989	78.39758736236158	
3.170606372000157	-37.006323151663494	184.77135495372147	23.209430854434718	184.7713549537214	32.126890980926404	-43.865297827541646	23.20943085443464	-43.86529782754171	75.50428922921866	
3.223449811533493	-91.24472278248061	211.70695712884816	9.41871577009051	211.70695712884813	25.79913576055631	-44.695581602561845	9.41871577009045	-44.6955816025619	73.35049614715501	
3.276293251066829	-136.7871873238391	233.2094323902087	-3.6224825843883863	233.20943239020866	15.40714217805018	-46.36057687767222	-3.6224825843884254	-46.36057687767228	72.1197773052577	
3.3291366906001647	-172.31654921161504	247.23582869440298	-15.688659626221066	247.235828694403	-1.21424244372011	-48.35972914394429	-15.688659626221096	-48.35972914394433	71.72325746446495	
3.381980130133501	-197.0402187434167	252.38055180669153	-26.383576358821866	252.38055180669153	-25.103286891072962	-50.158540668921894	-26.383576358821877	-50.15854066892193	71.75405061053003	
3.434823569666837	-210.81215741755244	247.94396575654378	-35.11311310613203	247.94396575654383	-56.018392439645325	-51.306654386336845	-35.11311310613202	-51.30665438633686	71.55028117591023	
3.4876670092001727	-214.1352617786406	233.94486459698766	-41.12552244786117	233.94486459698766	-92.54130150465937	-51.52775794768249	-41.12552244786115	-51.52775794768249	70.33331160972244	
3.540510448733509	-208.0066827669736	211.13925116261456	-43.62453621490884	211.1392511626146	-132.259967938383	-50.763528952919565	-43.624536214908794	-50.76352895291957	67.4289350334343	
3.5933538882668445	-193.8313919227212	180.76242782874797	-41.93692757070834	180.7624278287481	-172.22399028867787	-49.145730106587976	-41.93692757070829	-49.14573010658795	62.467475657604965	
3.6461973278001807	-173.2021475900736	144.52795358184446	-35.699390198225814	144.52795358184457	-209.33540020641232	-46.96141942954147	-35.69939019822576	-46.96141942954145	55.548078921470236	
3.6990407673335164	-147.8211544580811	104.2868220182932	-24.991280908434263	104.28682201829334	-240.58505315578117	-44.592954457244836	-24.9912809084342	-44.592954457244794	47.29904951956466	
3.7518842068668525	-119.2329347054772	61.96544437043363	-10.407679826536604	61.96544437043379	-263.36603903006454	-42.48996592106678	-10.407679826536532	-42.48996592106671	38.81764028550061	
3.8047276464001882	-88.82222131731174	19.429729904084287	6.913511794864654	19.42972990408446	-275.7668891556532	-41.149577586535244	6.913511794864725	-41.14957758653519	31.49543896944633	
3.8575710859335244	-57.7534632696199	-21.537375542504282	25.411367138906492	-21.537375542504112	-276.70943445545817	-41.088529946079426	25.41136713890657	-41.08852994607935	26.751908288330263	
3.9104145254668605	-26.671767395865643	-59.317388110388244	43.26810341786985	-59.31738811038806	-266.00804060831115	-42.77089398577381	43.26810341786993	-42.77089398577374	25.775264511522803	
3.9632579650001962	4.048319260994177	-92.55787314970064	58.628134315453266	-92.55787314970048	-244.37917082212152	-46.54178751967872	58.62813431545335	-46.541787519678635	29.308436951502983	
4.016101404533532	34.45376843885806	-120.09167770935686	69.86321493817154	-120.09167770935672	-213.59864578112442	-52.55137612605066	69.86321493817161	-52.55137612605059	37.474807786474244	
4.068944844066868	64.82599982408799	-141.06195353681554	75.75752361557221	-141.06195353681542	-176.21631915898595	-60.6302339600073	75.75752361557224	-60.630233960007274	49.7968631211298	
4.121788283600204	95.59704633442959	-155.06903110581672	75.65856058867608	-155.06903110581666	-135.35991706447794	-70.25408616189377	75.65856058867612	-70.25408616189372	65.29855341275822	
4.17463172313354	127.19130538639376	-162.07778073589657	69.50262627970028	-162.07778073589654	-94.20318686775823	-80.58246949196628	69.5026262797003	-80.58246949196625	82.67687651275057	
4.227475162666876	159.79326985797476	-162.48435101261103	57.75172529345987	-162.48435101261103	-55.72090256053599	-90.55242793898856	57.751725293459884	-90.55242793898857	100.52314129514846	
4.280318602200212	193.322653435511	-157.0781287388607	41.31785280293127	-157.07812873886076	-22.237857008772213	-99.04729519367655	41.31785280293126	-99.04729519367658	117.53938321057231	
4.333162041733548	227.48391515413	-146.89340891646577	21.377038354721293	-146.89340891646586	5.174306041347009	-105.0823682890535	21.37703835472126	-105.08236828905359	132.68629436985458	
4.386005481266884	261.9367599676202	-133.06995963600752	-0.7709775326668296	-133.0699596360077	26.606723796706802	-107.97516770088276	-0.7709775326668749	-107.97516770088286	145.25339037945113	
4.43884892080022	296.39811471188204	-116.85472726603138	-23.83448895074619	-116.85472726603157	43.338909728721575	-107.47724178759893	-23.834488950746252	-107.4772417875991	154.83586442268802	
4.4916923603335555	330.80255405536525	-99.41053745414845	-46.594041289372534	-99.41053745414868	57.50984730289528	-103.73938088044883	-46.5940412893726	-103.73938088044899	161.2793713197135	
4.544535799866892	365.4357322490634	-81.78533452871596	-67.95326908373488	-81.78533452871622	71.67588820184308	-97.20271624350569	-67.95326908373495	-97.20271624350589	164.5952817684792	
4.597379239400228	400.79855026846496	-64.80363994323761	-86.93880288619485	-64.8036399432379	88.31026027080665	-88.41711513230707	-86.93880288619494	-88.41711513230729	164.87839076834885	
4.650222678933564	437.24893078836277	-49.04411711294086	-102.74769083462579	-49.04411711294118	109.28655474155167	-77.82851666799277	-102.74769083462589	-77.82851666799301	162.2142844217978	
4.7030661184669	474.7222168164451	-35.10311101194314	-114.77922700704242	-35.10311101194345	135.34518650788362	-65.6344742635602	-114.77922700704252	-65.63447426356046	156.67852803546714	
4.755909558000235	512.3420745029392	-23.44935273224629	-122.68837747667686	-23.449352732246574	165.86160058060932	-51.74499915841288	-122.68837747667696	-51.74499915841318	148.32032453116744	
4.808752997533571	548.3863183161258	-14.521389172357885	-126.48042222837634	-14.52138917235812	199.1041611370027	-35.856727735152106	-126.48042222837648	-35.856727735152425	137.19622294850254	
4.861596437066908	580.4101475460186	-8.866215192001157	-126.53931203395142	-8.86621519200137	232.38649675245904	-17.640119703753403	-126.53931203395152	-17.640119703753722	123.42195698378293	
4.914439876600244	605.4610642735747	-6.978941580111721	-123.61623198786471	-6.978941580111908	262.5534303411571	3.057295421057063	-123.61623198786484	3.057295421056761	107.17791710098248	
4.967283316133579	620.6463496233118	-9.4752532596397	-118.72594325586928	-9.475253259639835	286.30236769208096	25.996845208006523	-118.72594325586942	25.99684520800624	88.74898469242106	
5.020126755666915	623.6677666759052	-16.87556332281475	-112.984953313584	-16.875563322814827	300.78878525173656	50.45382231387574	-112.98495331358416	50.45382231387546	68.55744205410775	
5.072970195200251	613.1175481935236	-29.4936143588592	-107.40410776571544	-29.493614358859194	303.7446382078241	75.20886826697009	-107.40410776571562	75.20886826696986	47.149795927055976	
5.125813634733587	588.8719069021587	-47.36047484858112	-102.66500549238539	-47.360474848581084	293.72002188934295	98.6992016718673	-102.66500549238562	98.69920167186714	25.170382609630686	
5.178657074266924	551.9682559011583	-69.95514181524358	-99.0078140124499	-69.95514181524351	270.2243134151063	119.23687083451136	-99.00781401245015	119.23687083451122	3.2957835145506067	
5.231500513800259	504.51693678865524	-96.10896329900557	-96.2166305252731	-96.10896329900534	233.69533037991903	135.24780056758462	-96.21663052527339	135.24780056758453	-17.836014068800957	
5.284343953333595	449.52027183918426	-123.95535403481456	-93.66636487322461	-123.95535403481426	185.68526596857484	145.54574763662055	-93.66636487322495	145.5457476366205	-37.70321794338918	
5.337187392866931	390.27708530098266	-150.9508267048074	-90.51494780543104	-150.95082670480704	128.71350146092328	149.5250779939764	-90.51494780543142	149.52507799397642	-55.93048547231033	
5.390030832400267	330.2379552917023	-174.0442176792851	-85.91134797460614	-174.04421767928469	66.3887221625261	147.2286014919024	-85.91134797460654	147.22860149190245	-72.33520728161592	
5.4428742719336025	272.48463443871384	-190.13096913370273	-79.19482149360006	-190.13096913370202	3.067854040233925	139.35039605176112	-79.19482149360047	139.35039605176127	-86.90150520527051	
5.495717711466939	219.5011289208078	-196.4224370865051	-70.01481374546302	-196.4224370865042	-56.57380613018714	127.12540723665603	-70.01481374546341	127.12540723665622	-99.72282009843173	
