# Stress in units of bar (10^5 Pa)
# z	Sxx	Sxy	Sxz	Syx	Syy	Syz	Szx	Szy	Szz
0.0	459.8161253463912	-8.039100059430506	13.912412182207397	-8.039100059429359	36.43757161509737	23.33919752094564	13.912412182207877	23.339197520945923	137.70276402761627	
0.05284420685749858	451.11211463692706	0.9868327986734293	2.6296558764023326	0.9868327986744454	11.828436002977654	34.058632773818985	2.6296558764028335	34.058632773819284	116.1061099022233	
0.10568841371499715	432.1472005078681	8.441101124599953	-9.266575185684628	8.441101124600777	-8.502314681703162	43.55745625225532	-9.266575185684161	43.55745625225562	92.19216090169918	
0.15853262057249573	403.6851105688917	14.855749198824626	-21.685938289450228	14.855749198825222	-21.812794286859976	51.63695286300714	-21.685938289449822	51.6369528630074	66.2060273638015	
0.2113768274299943	366.15600390261375	20.916240806821328	-34.80661470278736	20.916240806821698	-26.483075203985308	58.016306697763476	-34.80661470278706	58.016306697763696	38.53776182995604	
0.2642210342874929	319.62160560696185	27.286284458027602	-49.00600294753263	27.286284458027783	-22.616304417551977	62.37688671522444	-49.00600294753243	62.376886715224586	9.771362532537283	
0.31706524114499146	263.9420249192229	34.17606873255223	-64.66633846198805	34.17606873255229	-12.206505620117127	64.47835031818208	-64.66633846198795	64.47835031818218	-19.318352274028946	
0.36990944800249004	199.19258192376026	41.40610206612797	-81.92004216665005	41.406102066127936	1.0578104458007687	64.31352595658153	-81.92004216664999	64.31352595658156	-47.794637389746505	
0.4227536548599886	126.4397790018229	48.337483636060824	-100.45644984348077	48.33748363606083	12.579182548179219	62.20930188065137	-100.45644984348077	62.20930188065134	-74.60985351395054	
0.4755978617174872	48.05539801244219	54.191789141989176	-119.4531721667521	54.191789141989204	17.949282733921265	58.83177234176273	-119.4531721667521	58.83177234176269	-98.62969889755072	
0.5284420685749858	-31.95100568615159	58.232763821305554	-137.71333849873295	58.232763821305696	14.013524661103201	55.06503109514108	-137.71333849873298	55.065031095141016	-118.67868832697496	
0.5812862754324843	-108.41665419058087	60.02400760926976	-153.94845615329405	60.02400760927	-0.23344120543215752	51.791684297094726	-153.94845615329402	51.79168429709467	-133.64077435106407	
0.6341304822899829	-175.82033109004095	59.38789039867876	-167.14209801978257	59.387890398679055	-23.44528856428863	49.700697999640916	-167.14209801978245	49.700697999640866	-142.62779283127875	
0.6869746891474815	-229.43019913392874	56.402425802203325	-176.81975085850124	56.40242580220365	-52.3479041493536	49.155226306222964	-176.81975085850107	49.155226306222914	-145.2117745923183	
0.7398188960049801	-266.48304918039804	51.131546516006594	-183.12967989730188	51.1315465160069	-82.51574238401778	50.18250681427086	-183.12967989730168	50.182506814270795	-141.62277492181266	
0.7926631028624787	-286.7315971382898	43.562937417771735	-186.70014723792957	43.562937417772005	-109.4258838891713	52.55790144087705	-186.70014723792934	52.55790144087695	-132.85938901330232	
0.8455073097199772	-292.81461554693976	33.36066341532097	-188.34307000560273	33.36066341532123	-129.5517727379712	55.917154562358334	-188.3430700056025	55.91715456235818	-120.60648262746648	
0.8983515165774758	-289.4817664179055	20.055340710655592	-188.72054295032657	20.055340710655813	-140.83608914472032	59.81841586062639	-188.72054295032623	59.818415860626196	-106.90474704502445	
0.9511957234349744	-282.6193492202007	2.976536286191571	-188.12478808270112	2.9765362861917666	-143.15134995023027	63.79004428384992	-188.12478808270077	63.79004428384966	-93.68764846878322	
1.004039930292473	-277.76986669050655	-18.334867471599612	-186.46609006999205	-18.334867471599466	-137.9792811292636	67.34172743383705	-186.4660900699917	67.34172743383674	-82.26472417340807	
1.0568841371499715	-278.9460600580992	-43.938401481094665	-183.44706029861635	-43.93840148109455	-127.97827729597358	70.01346028065409	-183.44706029861595	70.01346028065373	-72.9419829945221	
1.1097283440074701	-287.5877800176217	-73.0737440115516	-178.82568184885207	-73.07374401155151	-116.08567821043013	71.4894214322106	-178.82568184885167	71.48942143221021	-64.92800648683712	
1.1625725508649687	-302.6394549611615	-103.86985259022087	-172.65653980253643	-103.86985259022082	-105.00372572430702	71.73418984456194	-172.65653980253612	71.73418984456153	-56.596491354963355	
1.2154167577224673	-320.92451451858614	-133.23379920509439	-165.33381611200295	-133.23379920509436	-96.58313116794392	71.07072228328354	-165.33381611200264	71.07072228328315	-46.02287272305645	
1.2682609645799658	-338.1486597192708	-157.18548408693255	-157.4616253221679	-157.18548408693255	-91.50238179732168	70.1732253612877	-157.4616253221677	70.17322536128736	-31.697430295937792	
1.3211051714374644	-350.3158380683698	-171.2444143946993	-149.58319156973596	-171.2444143946994	-89.56358643533672	69.95627832562984	-149.5831915697358	69.95627832562955	-13.151932771219858	
1.373949378294963	-354.33794654524536	-171.54172811424775	-141.9019689546874	-171.5417281142479	-89.8508358641752	71.39626375710972	-141.90196895468728	71.39626375710951	8.711011490111787	
1.4267935851524616	-348.7566144432145	-155.68388765246164	-134.12781234555487	-155.68388765246183	-91.33623728956886	75.33482565400519	-134.1278123455548	75.33482565400504	31.721778969258647	
1.4796377920099602	-333.3066541372463	-123.7436050976672	-125.50171097480424	-123.74360509766751	-92.9255436943542	82.37778520818216	-125.50171097480427	82.3777852081821	53.00446407315186	
1.5324819988674587	-308.62547247869156	-78.38613383923084	-114.97860068473167	-78.38613383923119	-93.66880491997503	92.87193604325695	-114.97860068473173	92.87193604325692	69.83989042052666	
1.5853262057249573	-275.2203197500314	-24.684274291788707	-101.52778791377142	-24.68427429178916	-92.5881773601392	106.79784927870207	-101.52778791377155	106.79784927870209	80.54643145558248	
1.6381704125824559	-233.14086319107065	30.97308135958227	-84.40950645417422	30.97308135958171	-88.30567157418011	123.72215758711839	-84.40950645417442	123.7221575871184	85.13019568783469	
1.6910146194399545	-181.8365804672392	82.33153311605886	-63.35523499672465	82.3315331160583	-78.99655278054261	142.63170101973483	-63.355234996724896	142.6317010197348	85.44351434368116	
1.743858826297453	-120.54612735161122	124.39151957103127	-38.61000805618307	124.3915195710307	-62.432246687096274	161.80340148109332	-38.61000805618338	161.80340148109332	84.84400394663245	
1.7967030331549516	-49.08723151053525	154.5702907244663	-10.923518373908333	154.57029072446568	-36.18771072854547	178.85841289807027	-10.923518373908692	178.8584128980702	87.42322868186977	
1.8495472400124502	31.32460511074003	172.74994789198013	18.580767718760924	172.74994789197956	1.719767610910182	191.10360338980428	18.580767718760516	191.10360338980428	97.11615436602156	
1.9023914468699488	117.70006326227482	180.78687781478277	48.54825207568017	180.7868778147822	52.321986713150125	196.1281057013847	48.54825207567976	196.12810570138467	116.86633178234523	
1.9552356537274473	205.4120439041903	181.63648621642614	77.55431268859294	181.63648621642565	114.966701538057	192.49863952378854	77.55431268859255	192.4986395237885	148.0124949511001	
2.008079860584946	288.73094556154035	178.23121022467862	104.2462197389732	178.23121022467816	187.24350513007857	180.28120594488047	104.2462197389728	180.28120594488047	190.0096540845532	
2.0609240674424445	362.00107561269965	172.8198785456316	127.39952815093221	172.81987854563118	264.9198678588253	161.20204740825454	127.39952815093187	161.2020474082546	240.46052880085347	
2.113768274299943	420.5223870024073	166.67794656597152	145.86989378431633	166.67794656597107	342.58526485697234	138.23493264339788	145.86989378431605	138.2349326433979	295.3776136465812	
2.1666124811574416	461.1047938273099	160.1602108521014	158.46841076467925	160.1602108521009	414.50835582774994	114.81669979076716	158.468410764679	114.81669979076723	349.71239311315816	
2.2194566880149402	482.2865597752297	153.13127519039688	163.87112491023902	153.13127519039637	475.5019435079737	93.93412222022435	163.87112491023885	93.93412222022441	398.0932134022601	
2.272300894872439	483.92319905919544	145.25760479962486	160.69301482699555	145.25760479962432	521.5634397918213	77.40319556273667	160.6930148269954	77.40319556273674	435.69947898225075	
2.3251451017299374	466.63078302498366	136.22803146479535	147.7263645382887	136.22803146479475	550.3432422966567	65.59984568176637	147.72636453828864	65.59984568176645	459.1616244653751	
2.377989308587436	431.76685197935956	125.85366106008588	124.39572955159323	125.85366106008527	561.3949240877399	57.67093766921843	124.39572955159323	57.67093766921852	467.2322678635309	
2.4308335154449345	381.102908280016	114.14974607592262	91.15845951718157	114.149746075922	555.8133297511964	52.13947728750452	91.15845951718161	52.13947728750457	461.0576539962867	
2.483677722302433	317.6133067578799	101.30408067414797	49.71904217906805	101.30408067414734	535.9674191708041	47.65737778143159	49.719042179068126	47.657377781431634	443.82276523883786	
2.5365219291599317	245.4499888512658	87.66927080879393	2.9313028265848224	87.66927080879336	504.9658592249018	43.59977069354498	2.9313028265849628	43.599770693545004	419.89689667254794	
2.5893661360174303	170.22482542475524	73.75949722437174	-45.624512445492726	73.75949722437129	466.17727897928614	40.33416072251091	-45.62451244549259	40.33416072251091	393.58851698795854	
2.642210342874929	98.20130570998418	59.8578234493318	-92.23244574959918	59.85782344933138	422.6497773008293	39.05539389281944	-92.23244574959904	39.05539389281942	367.9941567348707	
2.6950545497324274	35.58236700346942	46.07790237239049	-133.59711299484158	46.07790237239015	376.950675026719	41.219964040478736	-133.59711299484144	41.21996404047871	344.29037569672465	
2.747898756589926	-12.740217153107537	32.02392339599989	-167.22966925711512	32.02392339599966	331.0155427121688	47.79649388261432	-167.229669257115	47.79649388261426	321.7824901376225	
2.8007429634474246	-43.96746412462389	17.199803430610757	-191.58970056092176	17.199803430610558	286.06514652408765	58.585412826973474	-191.58970056092167	58.585412826973375	298.67196721485027	
2.853587170304923	-57.77846288034099	1.1278338730018582	-206.0183879510925	1.1278338730017055	242.8324545506603	71.88379704763597	-206.01838795109245	71.88379704763587	273.2543407926913	
2.9064313771624217	-55.80045513465002	-16.016618853312536	-210.51359375447387	-16.01661885331268	201.77461161645314	84.74017638391925	-210.5135937544739	84.74017638391915	244.95653388953238	
2.9592755840199203	-41.23719401169424	-33.28041816726704	-205.57919657957586	-33.28041816726713	162.99537013654782	93.77853086646172	-205.57919657957584	93.77853086646161	214.82161082994904	
3.012119790877419	-17.99877747502825	-48.928510723452064	-192.0839225002946	-48.928510723452106	126.26330254889069	96.31712783209369	-192.0839225002946	96.31712783209356	185.19557292669097	
3.0649639977349175	9.731836049871525	-60.94131072049008	-171.27741475314264	-60.94131072049008	91.1431154954392	91.33798482603714	-171.27741475314264	91.33798482603699	158.78602382334876	
3.117808204592416	37.371847443827846	-67.41662120850249	-144.890828090021	-67.41662120850248	56.935326398607614	79.97477499548899	-144.89082809002102	79.97477499548881	137.54803410007133	
3.1706524114499146	60.60590737513293	-67.14474579827083	-115.24037269918092	-67.14474579827075	23.340446547636105	65.24619797594902	-115.2403726991809	65.24619797594883	121.93184781502677	
3.223496618307413	75.39496520927513	-59.7911038355658	-85.22786638418765	-59.791103835565664	-9.650367708741967	51.049608050330214	-85.22786638418762	51.04960805033001	110.82816821786241	
3.2763408251649118	78.99564756011515	-45.968192552880616	-58.09409363835081	-45.96819255288045	-41.35273214818014	40.88188404143012	-58.094093638350806	40.881884041429934	102.20225012618079	
3.3291850320224103	70.60718902178643	-26.92503171867355	-36.9162475650158	-26.925031718673377	-70.67863542272639	36.748784798772185	-36.91624756501575	36.74878479877199	94.11468839273121	
3.382029238879909	51.87333790940342	-4.466793497427517	-23.960227615544056	-4.466793497427325	-96.64234556639002	38.55906710870305	-23.960227615544017	38.55906710870286	85.61185704285589	
3.4348734457374075	26.960755011343252	19.35501934201305	-20.099022708677644	19.35501934201322	-118.56440584765798	44.37547952930802	-20.09902270867761	44.375479529307846	77.20962486507528	
3.487717652594906	1.5056119073879017	42.575476388299876	-24.490380031952043	42.57547638830003	-136.3281691452642	51.31277981637417	-24.490380031952004	51.31277981637399	70.73383566560231	
3.5405618594524046	-18.99349626061283	63.36638897974877	-34.617664773495434	63.36638897974895	-150.53975408476225	56.715325513229146	-34.61766477349539	56.715325513228976	68.65442123495714	
3.5934060663099032	-30.452695539478707	80.47292573523619	-46.83527076417045	80.47292573523634	-161.86339530675994	59.1614325851976	-46.8352707641704	59.161432585197446	73.27246121311026	
3.646250273167402	-31.64727432280199	93.50010352015158	-57.185747909802785	93.5001035201517	-170.6359565158878	58.936830720576374	-57.18574790980275	58.93683072057624	86.05348787575043	
3.6990944800249004	-24.091318402524216	102.90067873331733	-62.28110119704757	102.90067873331748	-176.38102924228158	57.77722453418823	-62.28110119704754	57.77722453418809	107.32892325240923	
3.751938686882399	-11.36631553522193	109.98065318210416	-60.017131044874425	109.98065318210433	-177.66721339538606	58.03156719212177	-60.01713104487439	58.031567192121656	136.36964779026226	
3.8047828937398975	2.1178034405952104	116.3063642626233	-49.88697953553732	116.30636426262346	-172.30173601751284	61.52166278115093	-49.88697953553729	61.52166278115084	171.7058089728646	
3.857627100597396	12.582340319905882	123.16715542616924	-32.87110494271406	123.16715542616944	-158.03612112884792	68.65526053099138	-32.871104942714034	68.65526053099133	211.52984314702624	
3.9104713074548947	17.914502363694183	131.03026718611096	-11.017402518047053	131.0302671861112	-133.16079910917455	78.00039879370392	-11.017402518047016	78.00039879370385	253.90396888942365	
3.9633155143123933	17.80474253058121	139.1733855437251	13.098209503830564	139.17338554372532	-97.24603475996116	86.57706391975756	13.098209503830605	86.5770639197575	296.81162097746994	
4.016159721169892	13.590729648155673	145.71465500583918	36.85503515465791	145.71465500583935	-51.59254893788173	90.73391088802987	36.85503515465795	90.73391088802984	338.0715933035493	
4.06900392802739	7.547161381978537	148.04613067408368	57.88874728234944	148.04613067408394	0.786903469749948	87.35198214561777	57.888747282349485	87.35198214561774	375.330805859428	
4.121848134884889	2.508525104043521	143.68484203339443	74.22055984301021	143.68484203339466	55.41070827820353	74.94038344655121	74.22055984301025	74.94038344655124	406.24891388688957	
4.174692341742388	1.4004543603390545	130.76906786046555	84.37856591406327	130.76906786046584	107.49688114059967	54.27050200422464	84.37856591406332	54.27050200422466	428.83980483894834	
4.227536548599886	7.100666884556571	108.88257082512828	87.54226533872102	108.88257082512858	152.96396518388747	28.257711294257092	87.54226533872105	28.257711294257156	441.92229093485435	
4.280380755457385	22.304395485696347	79.24968713404465	83.78220425665819	79.24968713404499	189.2637296435833	1.2032791275955041	83.78220425665818	1.2032791275956072	445.37912322836513	
4.333224962314883	49.28348406876833	44.8060957768929	74.23953531643386	44.80609577689325	216.36600787743245	-22.49182291721893	74.2395353164338	-22.491822917218798	440.1463242137379	
4.386069169172382	89.38414824861935	9.776909497930486	61.119779843123574	9.776909497930848	236.26002442799347	-39.679143655447064	61.119779843123496	-39.679143655446914	427.85915322699486	
4.4389133760298805	142.03830874212034	-21.300196903089585	47.31980114253028	-21.300196903089187	252.4477405925405	-49.451562762024366	47.31980114253017	-49.4515627620242	410.34644994104906	
4.491757582887379	204.8733543078425	-44.35565708709788	35.779550820809916	-44.3556570870975	268.7359046195223	-53.40490071543447	35.77955082080976	-53.40490071543431	389.15436425102376	
4.544601789744878	273.51505282426956	-57.11910056210501	28.713829837275398	-57.11910056210461	288.57027113830213	-55.069970399455585	28.71382983727522	-55.069970399455435	365.32719555857835	
4.597445996602376	342.3970132282798	-59.51980842560033	27.046411054861032	-59.51980842559993	313.83223030260876	-58.64201428881137	27.04641105486084	-58.642014288811254	339.49266660320905	
4.650290203459875	405.95336527728637	-53.94243815229782	30.258111772316123	-53.94243815229743	344.8533359998686	-67.57199419452556	30.258111772315907	-67.5719941945255	312.18449466355105	
4.703134410317373	459.89913214457084	-44.50331367514057	36.75996112154546	-44.50331367514022	380.56376237872405	-83.4849255070363	36.75996112154523	-83.48492550703627	284.07491261814596	
4.755978617174872	502.29255024632533	-35.949870017602734	44.54620670830192	-35.94987001760239	418.84852552274884	-105.76697131826633	44.54620670830167	-105.76697131826634	256.0519659536334	
4.8088228240323705	533.5129226522142	-32.360065515516325	51.89439673488533	-32.36006551551608	457.02247274467675	-132.00374421359572	51.89439673488507	-132.0037442135958	229.06640769934288	
4.861667030889869	555.921885555782	-36.16757467786273	57.797464352368564	-36.16757467786257	492.1745333023223	-159.02899007651536	57.79746435236829	-159.02899007651547	203.89804204107577	
4.914511237747368	572.3998514407406	-47.63804908822813	61.988424078782415	-47.638049088228044	521.0046311443434	-184.05037932785999	61.98842407878216	-184.05037932786018	181.0002730355099	
4.967355444604866	585.4184685937894	-65.10992463662811	64.66067371171368	-65.10992463662812	540.3935774492425	-205.41309166878617	64.6606737117134	-205.4130916687864	160.5480185808113	
5.020199651462365	595.9708051995079	-85.62768988567836	66.07126055735438	-85.62768988567845	547.3248779940044	-222.83098192836096	66.07126055735415	-222.83098192836127	142.69395937660383	
5.073043858319863	603.4373986260975	-105.83989481018403	66.28055339211542	-105.8398948101842	539.6093237764445	-237.00511638374482	66.2805533921152	-237.0051163837452	127.83949057535014	
5.125888065177362	606.0906976736625	-122.84058783920611	65.13011215223798	-122.84058783920632	516.5270439952027	-248.95420371329084	65.13011215223781	-248.9542037132913	116.73232717856928	
5.1787322720348605	601.5484647320261	-134.61827458889744	62.45681051414716	-134.61827458889775	479.172463059109	-259.3763465139563	62.45681051414704	-259.3763465139569	110.23512652650648	
5.231576478892359	587.4714934421905	-140.36033068877754	58.337645552243174	-140.3603306887779	430.451710869085	-268.26513544910586	58.337645552243124	-268.2651354491064	108.87574415558493	
5.284420685749858	562.1561196247386	-140.12610776469944	53.20727490576609	-140.12610776469975	374.51505157370707	-274.86137369916673	53.20727490576611	-274.86137369916736	112.4155835357865	
5.337264892607356	524.4166440980515	-134.57165519809013	47.75674191177994	-134.5716551980905	315.55985306328455	-277.8660154061579	47.756741911780026	-277.86601540615845	119.6010569475335	
5.390109099464855	473.9965499387616	-124.56693269793794	42.63638031987874	-124.56693269793834	256.94722953606185	-275.80731744526645	42.636380319878896	-275.807317445267	128.37761688500314	
5.442953306322353	411.66158470228504	-110.74755802143989	38.09635290062751	-110.74755802144021	200.82132849925873	-267.40723033246735	38.09635290062772	-267.40723033246786	136.45054380655313	
5.495797513179852	339.34958146771964	-93.52722350522642	33.74632291229511	-93.52722350522667	147.957642194887	-251.88280697297955	33.74632291229536	-251.88280697298003	141.96624307357058	
