# Stress in units of bar (10^5 Pa)
# z	Sxx	Sxy	Sxz	Syx	Syy	Syz	Szx	Szy	Szz
0.0	536.9396343355969	29.75044255063637	19.697295341594796	29.75044255063846	47.83970057360466	33.67085195003014	19.697295341595773	33.67085195003047	146.2366555024396	
0.05284420685749858	511.9226804396961	22.99495275864748	-3.3907680876536253	22.994952758649426	-18.4213602917865	36.47516637439443	-3.3907680876526944	36.47516637439496	135.1513530607602	
0.10568841371499715	477.76040479049755	14.998953986051447	-22.671436204478432	14.998953986052896	-73.17644643770082	41.398843655480604	-22.67143620447764	41.3988436554812	118.16844255398134	
0.15853262057249573	433.8625898422085	12.278096751718323	-33.86300698508076	12.278096751719005	-111.25327005543477	51.70062175214012	-33.86300698508018	51.70062175214068	89.45196836934377	
0.2113768274299943	386.2615933363005	9.638233200886646	-36.625092118868764	9.638233200886532	-135.99694065251379	66.38299659676672	-36.62509211886842	66.38299659676717	50.18116193596703	
0.2642210342874929	349.84940959489313	3.5949463051583592	-34.974709441064746	3.5949463051575563	-136.86881323162072	81.54001381451513	-34.97470944106463	81.54001381451539	8.021122647657906	
0.31706524114499146	330.2167469666261	4.841240207640865	-35.83008864977214	4.841240207639665	-92.09166848170042	92.80875617522258	-35.83008864977225	92.80875617522258	-29.050780203019848	
0.36990944800249004	305.37490690689106	26.946729364156383	-47.05041072958932	26.946729364155146	-0.6473186672984923	96.02970282852681	-47.05041072958967	96.02970282852655	-58.94755566891551	
0.4227536548599886	240.1925133932312	64.50387705377045	-73.89999484341182	64.50387705376971	102.48824677625001	87.06507432468106	-73.8999948434123	87.06507432468064	-85.7215857359771	
0.4755978617174872	121.45276256197724	94.2501966215802	-114.64890538572502	94.25019662158024	169.62721935660574	64.91951712010639	-114.64890538572537	64.919517120106	-114.1232397437136	
0.5284420685749858	-30.773617468871322	98.81528555336877	-160.0553741046182	98.8152855533696	173.5129254672515	37.06305647478773	-160.0553741046183	37.063056474787516	-144.78103914255797	
0.5812862754324843	-184.73241327561507	81.96205607713222	-198.44426438308665	81.96205607713335	118.70635184574442	18.41279492341507	-198.44426438308642	18.412794923415117	-174.18665167222554	
0.6341304822899829	-317.8506874904704	61.22000536770693	-221.1588596808977	61.220005367707856	30.210508159125446	19.970634008662746	-221.1588596808973	19.97063400866296	-197.1977544194832	
0.6869746891474815	-414.2138027067863	51.47693092170219	-224.14521818359464	51.47693092170266	-64.20520923187173	37.53544346784829	-224.1452181835943	37.5354434678485	-208.46087656193168	
0.7398188960049801	-459.4047355150261	54.32942136573428	-208.66169374576538	54.329421365734376	-144.51945753687755	54.86923891133071	-208.66169374576523	54.869238911330775	-203.06996677048127	
0.7926631028624787	-448.56984136551586	58.91219612684692	-183.62823755498184	58.912196126846936	-200.6647591038787	59.60580586264148	-183.6282375549818	59.6058058626414	-178.22937363369795	
0.8455073097199772	-391.84642113229665	53.94147638535864	-164.47040652248415	53.941476385358754	-231.20847685139663	53.995018410600366	-164.4704065224841	53.99501841060021	-136.01837195950728	
0.8983515165774758	-307.13915906688294	39.68901533875555	-163.9626987616501	39.68901533875577	-238.84457074200313	49.35179113156694	-163.96269876164985	49.35179113156679	-85.75508948926063	
0.9511957234349744	-215.68732431175198	25.290838451327403	-181.93990448325576	25.290838451327673	-223.72605361739625	53.6098295809587	-181.9399044832552	53.609829580958554	-42.81328833470014	
1.004039930292473	-145.36633931333398	14.91215262108139	-205.29298976723572	14.912152621081589	-184.3701111400653	66.63497234405182	-205.29298976723493	66.63497234405158	-21.593066725126146	
1.0568841371499715	-125.69798944351061	1.6307907131608772	-218.61628526809827	1.6307907131609483	-127.21271048028859	83.67203318176584	-218.61628526809753	83.67203318176543	-26.77827175176467	
1.1097283440074701	-169.45153896206708	-24.280811246689584	-214.2931028730605	-24.280811246689606	-70.45259187670946	97.98949998290627	-214.29310287305992	97.98949998290566	-50.988446227079024	
1.1625725508649687	-259.6513254188695	-67.38725937724834	-194.33336146308804	-67.38725937724833	-34.312949699833425	101.43005497154334	-194.33336146308773	101.4300549715426	-80.7095413092547	
1.2154167577224673	-358.83648739698066	-128.24010740924814	-166.4977697505655	-128.24010740924808	-30.114212609617923	88.65465394582135	-166.4977697505654	88.65465394582057	-103.48587044650387	
1.2682609645799658	-433.09762569464004	-204.49754540573508	-139.87827159325792	-204.497545405735	-56.56607956951087	63.91144852685083	-139.87827159325786	63.91144852685014	-109.5802349188193	
1.3211051714374644	-468.02539292629467	-284.69275534789193	-121.86761374715056	-284.6927553478919	-96.63398961284196	41.1202191536481	-121.8676137471505	41.120219153647625	-90.43744169545266	
1.373949378294963	-465.6247188514271	-344.08263622940837	-116.74101801355222	-344.08263622940837	-121.39358726784924	34.146742293217066	-116.74101801355212	34.14674229321689	-41.02030076984569	
1.4267935851524616	-433.0560324091402	-354.26501389688354	-125.02523153073051	-354.2650138968836	-113.5597715973961	46.2104631070947	-125.0252315307304	46.210463107094796	33.7400852518801	
1.4796377920099602	-378.3074109307192	-300.2506585422365	-141.68393898682396	-300.25065854223675	-88.5219282690299	68.16672195732193	-141.68393898682388	68.1667219573222	115.7659365262063	
1.5324819988674587	-315.0548320705536	-187.74238296700648	-154.61100531284112	-187.7423829670068	-77.96542414265653	86.14157564099679	-154.61100531284112	86.1415756409971	178.84496044050235	
1.5853262057249573	-265.15094160283695	-38.68179616860679	-149.66006196862887	-38.68179616860732	-91.6231641822161	92.40173424021636	-149.6600619686289	92.40173424021661	199.87169363916524	
1.6381704125824559	-245.26788059237313	115.71825015202141	-122.51799078987369	115.71825015202077	-108.84188697468613	92.06695867559073	-122.51799078987378	92.06695867559088	171.2304947150276	
1.6910146194399545	-247.418785398782	240.61644486941034	-84.75755702820881	240.61644486940958	-110.21856161971985	100.4778155708616	-84.75755702820902	100.47781557086162	107.3591885647352	
1.743858826297453	-238.83724167864077	306.81411308591134	-52.806382805595845	306.81411308591055	-104.12233451449346	132.185309441631	-52.80638280559626	132.18530944163092	38.6679299855791	
1.7967030331549516	-187.27053731834317	303.54334891590486	-29.483575494562096	303.543348915904	-109.67316158464087	189.16210256892722	-29.48357549456269	189.1621025689271	-5.554061882114617	
1.8495472400124502	-83.69464667938244	247.96603344460698	-0.6804751662686819	247.96603344460624	-119.44985841964709	256.9162670310987	-0.6804751662693462	256.9162670310985	-12.758365432825357	
1.9023914468699488	60.522852452111806	179.8705464035187	46.59275259156216	179.87054640351795	-97.52003467347973	310.6339713488421	46.59275259156158	310.63397134884195	10.887210700412266	
1.9552356537274473	228.39140096626306	138.6882272372449	105.62875231844829	138.68822723724446	-17.669213804002737	325.9074588783659	105.62875231844785	325.90745887836584	52.57309254798059	
2.008079860584946	399.8408992216236	137.5667695416122	153.49642303596812	137.56676954161196	112.61390513626642	289.3037017147634	153.49642303596775	289.30370171476346	106.95771907198076	
2.0609240674424445	541.9907227440879	160.20942440949966	172.99540903278685	160.2094244094996	265.2372024155569	207.44456208308483	172.99540903278654	207.44456208308495	178.6792953029452	
2.113768274299943	616.0719141751717	181.79591822777837	169.2428696779552	181.79591822777846	410.8528444239626	108.46844688807877	169.24286967795487	108.46844688807897	272.34412162952174	
2.1666124811574416	614.0271464757108	187.80976034380302	165.17294940229456	187.8097603438029	528.9026790919194	28.91211953715169	165.17294940229425	28.912119537151863	382.4203907031698	
2.2194566880149402	575.746751687374	175.5685706303733	181.6318844151676	175.5685706303729	613.1237156083126	-6.76459495061119	181.63188441516738	-6.764594950611077	492.66698365179917	
2.272300894872439	549.2982318425578	150.2662281469291	219.1758016245477	150.26622814692854	666.9811149745713	2.336548072807169	219.17580162454766	2.3365480728072114	582.4503625461724	
2.3251451017299374	544.5044893191919	124.78618471694705	254.51899829146564	124.78618471694614	690.7754416762144	36.57662636078368	254.51899829146566	36.5766263607837	633.3149190541252	
2.377989308587436	539.3692161862472	115.51894881851408	254.39160491073397	115.51894881851297	683.0974032128403	68.8254905176406	254.391604910734	68.82549051764066	634.0318616397348	
2.4308335154449345	512.6624111644622	127.54273445238297	199.39247873582352	127.54273445238192	653.2109146902346	82.10229249900475	199.39247873582354	82.10229249900486	584.2747337216149	
2.483677722302433	450.8402551548912	141.35889469238026	100.66707842480982	141.3588946923793	612.9097220767151	78.90196954632003	100.6670784248099	78.90196954632016	495.35328782394095	
2.5365219291599317	340.33378295869863	124.35180237579293	-7.368862799076304	124.35180237579215	557.1394569310618	69.98418858638591	-7.3688627990761475	69.98418858638598	388.6096399837676	
2.5893661360174303	178.26848956287472	68.46358956585826	-94.04087577085822	68.46358956585775	476.25253975726605	55.99027158018963	-94.04087577085795	55.990271580189614	294.0265990405579	
2.642210342874929	-7.914886503675774	8.733230461565853	-152.87697725296945	8.73323046156564	387.96181321823155	27.612663871512286	-152.87697725296917	27.612663871512204	244.75681505211196	
2.6950545497324274	-163.20959080856133	-10.321500735805643	-196.7101536596379	-10.321500735805714	331.72974968119183	-15.470254868502145	-196.71015365963768	-15.47025486850228	260.3061907171664	
2.747898756589926	-237.36260938745545	18.688481190792537	-236.76852858112034	18.688481190792572	321.2319456741469	-51.49632513741451	-236.76852858112022	-51.49632513741466	326.71678639242697	
2.8007429634474246	-221.0493192283046	62.0601683790082	-268.9048077820665	62.060168379008196	317.32868966951287	-46.589636137112166	-268.9048077820664	-46.58963613711225	396.35617786326236	
2.853587170304923	-150.93575025075626	77.80202712886803	-280.01900002468665	77.80202712886793	266.7594928018776	17.954636465446395	-280.0190000246867	17.95463646544636	414.8956331232656	
2.9064313771624217	-81.20859281434724	44.89001401780655	-266.6386492939753	44.89001401780638	169.88350149837817	123.39464897856305	-266.63864929397533	123.39464897856308	355.18706685500786	
2.9592755840199203	-47.0848590922412	-27.431457220893165	-243.1517497644869	-27.431457220893392	89.30815930039384	219.24615968728642	-243.15174976448696	219.24615968728648	233.62532540065087	
3.012119790877419	-43.394437746595685	-104.93657340312419	-227.3937732055395	-104.93657340312438	74.91428398676436	257.24128416964027	-227.39377320553956	257.2412841696402	100.88175107342924	
3.0649639977349175	-34.44052400467713	-149.54703524475036	-219.81432707434624	-149.54703524475042	101.23531292289609	223.1586652062304	-219.81432707434618	223.15866520623024	13.273693374830515	
3.117808204592416	11.07852997708983	-148.1538555918142	-201.91285270070932	-148.15385559181414	104.49748857437932	138.24264721297962	-201.91285270070927	138.2426472129794	0.8451766484956451	
3.1706524114499146	93.01114581394427	-120.34178969187266	-155.89542700553307	-120.3417896918725	60.392849417606755	37.25692290566941	-155.895427005533	37.25692290566913	52.34861414692713	
3.223496618307413	184.63203216247595	-93.5607498752822	-83.09586662333481	-93.56074987528196	-3.900381233684982	-49.10583893167778	-83.09586662333473	-49.10583893167808	126.19259262678054	
3.2763408251649118	252.84831433243568	-75.55016233797711	-3.4360983537939975	-75.55016233797681	-57.47468187207722	-97.0215193249481	-3.436098353793944	-97.02151932494837	177.29854057481458	
3.3291850320224103	266.2290494132144	-54.73222992162515	59.58312776929005	-54.73222992162482	-98.80759818537075	-90.45354396956162	59.58312776929009	-90.45354396956185	181.039659386896	
3.382029238879909	197.9284058156246	-21.62528233544667	91.54794574537593	-21.62528233544637	-144.25243102176378	-30.172564913745376	91.54794574537593	-30.172564913745557	140.97695295140753	
3.4348734457374075	50.34471498214825	19.341789511948406	88.9344709410598	19.34178951194869	-192.51738402600998	58.88025922196301	88.93447094105983	58.880259221962845	78.99948418732532	
3.487717652594906	-119.11458568059103	60.01953407448883	54.646491450126575	60.019534074489	-209.15538189461745	136.54990995670778	54.64649145012663	136.5499099567076	18.883270688861188	
3.5405618594524046	-226.21842023966173	99.40029321221212	-5.0793154096385535	99.40029321221223	-167.86485412395967	169.9515431165999	-5.079315409638475	169.95154311659974	-22.302545266691276	
3.5934060663099032	-228.26364755486733	136.3971122779413	-78.7004667294228	136.39711227794135	-105.40034531667712	150.21058475619213	-78.70046672942274	150.2105847561919	-32.85663316045505	
3.646250273167402	-152.11084003512093	159.3423623332025	-145.33163486512927	159.34236233320254	-98.16892175719673	91.5854163929965	-145.33163486512922	91.58541639299631	-6.612032571551739	
3.6990944800249004	-52.200648431156154	153.99071684914162	-178.92474432527433	153.99071684914168	-169.13422206285617	20.71034493846085	-178.92474432527428	20.710344938460672	50.504599011497795	
3.751938686882399	38.56491582166666	119.87982089149898	-164.7436336434158	119.87982089149907	-252.49503116534976	-33.18342347157891	-164.74363364341576	-33.18342347157907	118.74258341706309	
3.8047828937398975	107.77725688047367	75.32468041660123	-112.60270349127896	75.32468041660135	-273.5703233831208	-47.51994813919234	-112.60270349127893	-47.51994813919244	176.07875460267513	
3.857627100597396	137.35176651224725	49.182432887873205	-49.0818090064143	49.18243288787339	-236.60547378536097	-15.747007055027332	-49.0818090064143	-15.74700705502741	213.53295808600774	
3.9104713074548947	108.47597186579218	64.94979423300181	3.6832130243000627	64.94979423300208	-203.22060542487887	50.71839274827427	3.6832130243000503	50.71839274827422	239.88145353542774	
3.9633155143123933	35.697471480081305	121.75889878202524	39.2067361373741	121.7588987820255	-199.63792270120769	129.90376235009637	39.206736137374094	129.90376235009637	273.3427021798091	
4.016159721169892	-29.21404978377035	189.63407442076723	61.52363807515985	189.63407442076746	-180.14484481696724	197.38185308221915	61.523638075159894	197.3818530822191	328.1121910462625	
4.06900392802739	-43.731334856156025	232.14705171963232	77.90909593378402	232.1470517196325	-87.5790092738755	230.95054477807312	77.9090959337841	230.9505447780731	403.719467996606	
4.121848134884889	-16.55868594932609	235.23218761213926	97.29222664036367	235.23218761213946	73.69259583679609	215.6942472640347	97.29222664036381	215.69424726403463	482.9389040551621	
4.174692341742388	6.423020985553464	212.43868178484402	126.15279978293691	212.43868178484416	236.81629593337635	150.0406934638033	126.15279978293704	150.04069346380328	540.8339127212002	
4.227536548599886	-6.939945332462642	184.3057870438846	158.72319222189486	184.3057870438848	333.57014440459164	48.37240950808628	158.723192221895	48.3724095080863	559.3530421846784	
4.280380755457385	-46.809099487937885	154.05781124499657	174.8061689325275	154.05781124499688	343.8240235735476	-62.63654031455974	174.80616893252756	-62.63654031455962	535.7475785720817	
4.333224962314883	-78.64342876405709	101.61075553652097	153.7768074313012	101.61075553652138	294.82470495652444	-152.62924661551	153.77680743130122	-152.62924661550977	481.56910580866713	
4.386069169172382	-71.71484482629484	6.9173244972957875	92.3499903969294	6.91732449729626	233.70297082742934	-196.5190475666662	92.34999039692934	-196.5190475666659	419.21951519175406	
4.4389133760298805	-10.092213707296594	-115.39475485853193	9.57562900502603	-115.39475485853147	198.79021962129644	-180.75148307654644	9.575629005025872	-180.75148307654612	375.8326090086673	
4.491757582887379	106.18393582041922	-212.400916348115	-61.83577688060267	-212.40091634811455	198.40255712878124	-108.95684642686194	-61.83577688060293	-108.95684642686163	367.7264359305553	
4.544601789744878	259.4846821028939	-235.0358121571149	-90.35980136322351	-235.03581215711452	215.74823008215625	-7.592157376993471	-90.35980136322378	-7.5921573769932085	384.23968581739865	
4.597445996602376	418.2908825859901	-181.43066666322784	-62.267530950377605	-181.43066666322747	239.62806222260394	77.47969315698329	-62.26753095037786	77.4796931569835	392.3367169341399	
4.650290203459875	553.036138355842	-89.69366378208453	6.903019663807999	-89.69366378208416	282.8479538166948	101.34079935527366	6.90301966380777	101.34079935527376	363.9121552717432	
4.703134410317373	644.9296774246498	2.516662737575757	78.29886041153968	2.5166627375761266	359.939833026177	46.73889581127139	78.2988604115395	46.73889581127144	299.70482861578284	
4.755978617174872	675.4973121994134	73.35736371412905	114.97004955857486	73.35736371412949	452.6054751698062	-64.82880034269122	114.97004955857467	-64.82880034269127	226.3267444560838	
4.8088228240323705	629.0696295253972	102.95877411406363	106.811432305019	102.958774114064	515.8368085518802	-185.98722882052073	106.81143230501876	-185.9872288205208	172.7792273910843	
4.861667030889869	530.9403491733311	78.19580324448503	72.82308256427638	78.1958032444853	528.5642510102697	-268.8450875865818	72.82308256427608	-268.845087586582	151.50892863411426	
4.914511237747368	461.1339274587116	13.618220087280918	41.94886892500084	13.618220087281031	523.7899416645647	-288.5768725798202	41.94886892500046	-288.57687257982036	156.5918839626022	
4.967355444604866	487.40978445123136	-58.629949464312745	32.96169877941885	-58.6299494643128	556.09255931201	-256.466241684399	32.96169877941844	-256.46624168439905	171.01558782439895	
5.020199651462365	590.3146479276177	-119.39501084587916	47.48690873012795	-119.39501084587941	640.2818210323853	-212.7732685995281	47.48690873012757	-212.7732685995282	173.8441557332862	
5.073043858319863	687.2076460352657	-166.0077732259488	74.32661466679244	-166.00777322594917	728.6357152478525	-197.30258052803703	74.32661466679217	-197.30258052803714	148.75872747619368	
5.125888065177362	719.239827293864	-194.4797481910066	97.77470177201535	-194.47974819100696	746.5810391109651	-219.43291930004773	97.77470177201516	-219.43291930004798	95.62385111392652	
5.1787322720348605	688.8026537707486	-198.96473100951204	105.34905838949118	-198.96473100951238	650.0116728786154	-257.2087215992001	105.34905838949108	-257.20872159920066	36.7822355809344	
5.231576478892359	633.3342095343219	-183.71262978860653	92.23624525119635	-183.7126297886068	463.497259791663	-285.0785798275986	92.23624525119627	-285.07857982759947	6.764340239170949	
5.284420685749858	595.0086119843114	-162.42690494255382	61.93930104657333	-162.42690494255405	276.3910642857401	-297.8257497591932	61.93930104657322	-297.8257497591942	27.782497794046765	
5.337264892607356	593.6731709667363	-145.75729428192892	25.498520710589176	-145.75729428192918	180.0869420489345	-306.6656278258077	25.498520710589126	-306.66562782580877	91.66692084093773	
5.390109099464855	599.846492461065	-133.74654810746884	-0.8055658609630605	-133.74654810746935	185.60577264994834	-319.18900898610235	-0.8055658609629255	-319.1890089861032	166.13662268548495	
5.442953306322353	554.2140669658412	-120.3451144035379	-3.180412582122937	-120.34511440353876	217.28303896639045	-329.4100391416604	-3.180412582122564	-329.41003914166095	217.81322338453555	
5.495797513179852	433.74871877451676	-104.66057436570492	18.93451449434898	-104.66057436570583	198.04085560818282	-324.26162179875865	18.93451449434953	-324.26162179875894	228.90249026480137	
