# Stress in units of bar (10^5 Pa)
# z	Sxx	Sxy	Sxz	Syx	Syy	Syz	Szx	Szy	Szz
0.0	432.5253238112598	-119.49889553220873	191.621124923338	-119.4988955322095	-159.41478390248034	136.10185316018405	191.6211249233375	136.101853160185	493.50265658488576	
0.0502685108345491	489.530406425362	-80.12903528821113	208.8571031029576	-80.12903528821198	-143.9953454828075	139.0531098901457	208.85710310295715	139.0531098901466	513.1959336500746	
0.1005370216690982	549.4797623785606	-44.76647859033912	220.83691182633757	-44.76647859034006	-122.83003760259976	136.5526114757049	220.8369118263372	136.55261147570576	533.1529723836916	
0.1508055325036473	613.2947507544076	-15.801229457772692	227.5557361958965	-15.801229457773672	-94.15453707204475	129.36791404873492	227.55573619589623	129.36791404873566	553.8383678437502	
0.2010740433381964	680.0392850737651	5.058571777126941	229.1878465793295	5.058571777125927	-58.75351313770453	119.48597729072473	229.18784657932946	119.48597729072534	574.5502320714265	
0.2513425541727455	746.8803140534012	17.272770675905974	226.09146120899106	17.272770675904894	-19.4225852264818	109.55373587048737	226.09146120899112	109.5537358704879	593.3219004441896	
0.3016110650072946	808.118726061126	21.683260282463436	218.84205611313098	21.683260282462314	19.294526538368444	102.19757443896529	218.8420561131313	102.19757443896572	607.2007976974032	
0.3518795758418437	856.9288537379641	20.33400300169003	208.29170685235368	20.33400300168889	52.91375324957458	99.42274533197319	208.29170685235422	99.42274533197353	612.8942928209609	
0.4021480866763928	886.1405189971666	16.11624348466622	195.58423997580752	16.11624348466507	78.14536422797092	102.31985425630928	195.5842399758082	102.31985425630961	607.5329689877192	
0.4524165975109419	889.880863263091	11.977032161377661	182.03102268112988	11.977032161376446	93.15942296188861	111.02613727429454	182.0310226811307	111.02613727429483	589.4620274577522	
0.502685108345491	865.0488584061053	10.367848694635015	168.90571575282218	10.367848694633807	97.99961594997508	124.89679188326642	168.90571575282306	124.89679188326676	558.7289221704351	
0.55295361918004	811.4889210306421	12.631474432742834	157.19954803995572	12.631474432741598	93.64646877103581	142.75112314238854	157.19954803995668	142.75112314238893	517.1903543838727	
0.6032221300145892	732.5551442435142	18.897664991840188	147.40947644728328	18.897664991839065	81.4258008966488	163.11268172828076	147.40947644728425	163.1126817282812	468.1959955910308	
0.6534906408491383	634.1485964361399	28.248303264452403	139.49436887390294	28.248303264451422	62.488094681478486	184.3949199748015	139.49436887390388	184.39491997480195	415.9601940220866	
0.7037591516836874	523.9237846415422	38.86174839802048	133.0384847951363	38.86174839801964	37.493143105520446	205.12349047469723	133.03848479513724	205.12349047469775	364.7456606793595	
0.7540276625182365	409.55143439244915	48.64287847834731	127.54851741326877	48.64287847834666	6.749773713590134	224.15428449125798	127.54851741326966	224.15428449125852	318.2013262067433	
0.8042961733527856	297.0217091547016	55.500858079044846	122.80593509165507	55.50085807904439	-29.33433619171808	240.82568606375054	122.80593509165593	240.8256860637511	278.89362507843333	
0.8545646841873347	189.369913057238	57.993294858482955	119.05790874712629	57.9932948584826	-70.01875942930305	255.01182893439523	119.05790874712713	255.0118289343957	248.13755135382718	
0.9048331950218838	86.33669556885272	55.27176107702125	116.98272592121673	55.271761077020926	-113.76939663781957	266.9473872241064	116.98272592121754	266.9473872241069	226.03037743303605	
0.9551017058564328	-14.809762974932383	47.501596057519336	117.48035008759263	47.50159605751897	-158.63213625040058	276.9138969922963	117.48035008759341	276.9138969922967	211.61785880763242	
1.005370216690982	-117.45055780592972	35.35145013030157	121.35639632794573	35.351450130301046	-202.1219911451799	284.87855486907864	121.35639632794653	284.87855486907904	203.06681207463978	
1.055638727525531	-223.50541820867892	19.858971734766413	129.06756738966726	19.858971734765746	-242.0318360531295	290.2446101097397	129.06756738966797	290.2446101097399	197.8867769017659	
1.10590723836008	-331.64727873675076	1.9866888058416805	140.61879615043557	1.9866888058408279	-276.2022683108718	291.9201744416069	140.61879615043628	291.92017444160706	193.14386099615226	
1.1561757491946292	-436.97478604607943	-17.510349624670425	155.59974345418286	-17.510349624671548	-303.5422865409756	288.6847942043493	155.5997434541835	288.6847942043494	185.87291282777954	
1.2064442600291785	-531.7124701525461	-37.95418458761618	173.25436035413503	-37.95418458761746	-323.1468067539742	279.7633351277795	173.25436035413563	279.76333512777944	173.55727343369347	
1.2567127708637276	-606.8922157646375	-58.374326920848375	192.5587724202113	-58.37432692084977	-334.8737863547508	265.28117280850233	192.5587724202118	265.2811728085023	154.79841133564958	
1.3069812816982767	-653.9955300417165	-77.14630337235909	212.2101142366842	-77.14630337236059	-338.32998348694025	246.44235446246645	212.21011423668463	246.44235446246637	129.90096646316363	
1.3572497925328257	-667.104910311261	-91.85336569883542	230.59844116484373	-91.85336569883691	-332.828196365883	225.31870588002008	230.59844116484408	225.31870588002002	101.19614896438074	
1.4075183033673748	-643.2604383971241	-99.55485695302832	245.8662047751648	-99.55485695302974	-316.98680369864826	204.19217212584104	245.86620477516493	204.192172125841	72.93304495855725	
1.457786814201924	-583.3522092696461	-97.80229932308089	256.0732529252198	-97.80229932308224	-289.0233461701588	184.81529815594646	256.0732529252198	184.8152981559465	50.60126534450268	
1.508055325036473	-491.8771199627113	-85.25449930528688	259.36470005374133	-85.25449930528812	-247.32283005116597	167.9142084965923	259.3647000537412	167.91420849659235	39.768209341621734	
1.558323835871022	-376.76332190843254	-62.79827159211078	254.2169819724457	-62.79827159211193	-191.37669617205682	153.01944445380525	254.2169819724454	153.0194444538053	44.685122880564435	
1.6085923467055712	-248.26016044930304	-33.14357880955242	239.55831022348931	-33.143578809553446	-122.39581722023823	138.8033601548653	239.55831022348892	138.80336015486535	67.0231618205633	
1.6588608575401202	-117.96043781958463	-0.41922051172731845	214.8171493216836	-0.4192205117282324	-44.049366717930695	123.66608195264716	214.81714932168313	123.6660819526472	105.20052196798362	
1.7091293683746693	3.0846979550968285	31.180631705046537	179.9462555940877	31.180631705045727	37.978908436525955	106.27910675312094	179.94625559408718	106.27910675312093	154.5097549032996	
1.7593978792092184	106.13815597315238	58.66457966906038	135.52686990729808	58.66457966905963	117.12879297907074	85.90130707905311	135.5268699072975	85.90130707905303	208.08278060479927	
1.8096663900437675	186.81094416120635	81.41025774962492	82.99756906474195	81.41025774962424	187.46127604515948	62.33209882093006	82.9975690647414	62.33209882092993	258.4644507351011	
1.8599349008783166	245.72219998977252	101.02153064978629	24.798145466667453	101.02153064978572	245.54833712010384	35.69929458844772	24.798145466666895	35.699294588447536	299.28955643278096	
1.9102034117128657	287.8579880825942	120.9023911090521	-35.492569622655864	120.90239110905165	291.6890321753605	6.221197540459594	-35.49256962265642	6.221197540459371	326.6043932409499	
1.9604719225474148	321.4707716846877	144.5161154460771	-93.37499914536957	144.51611544607678	329.78433401651284	-25.7632001407914	-93.37499914537017	-25.763200140791657	339.4052388120816	
2.010740433381964	354.75084774327274	174.25994889497417	-143.9827626610798	174.259948894974	366.46735514888746	-59.53536268950538	-143.98276266108041	-59.53536268950569	339.4148022146126	
2.061008944216513	393.2417195344834	210.13445235996963	-182.7869466371076	210.13445235996963	408.605194055012	-93.63873181607937	-182.78694663710826	-93.63873181607971	330.20573459024274	
2.111277455051062	437.95541470396813	249.64811992863525	-206.36277071554076	249.64811992863534	461.27068536016554	-125.53709596174424	-206.3627707155415	-125.53709596174464	315.97752157070494	
2.1615459658856113	484.574113632144	288.4183637263208	-213.01605906393604	288.41836372632093	525.3075264732631	-151.65759262305005	-213.01605906393675	-151.65759262305045	300.5198800306621	
2.21181447672016	525.3866906391055	321.68540897298226	-203.10556102444616	321.6854089729825	596.6725053754977	-167.75577224125547	-203.1055610244469	-167.7557722412559	286.5645604838976	
2.2620829875547095	551.1977953879648	345.4213506804001	-179.0468157285693	345.42135068040034	666.7457090023781	-169.74835199122364	-179.04681572857004	-169.74835199122413	275.7103424441474	
2.3123514983892584	554.4906670179556	357.4778838816368	-145.0103802035572	357.47788388163696	723.8079822747312	-154.73386834177694	-145.01038020355784	-154.73386834177745	268.7335328078992	
2.3626200092238077	531.225763935741	357.7142574182201	-106.43806057083336	357.7142574182202	755.2580202550129	-121.9262796366135	-106.43806057083393	-121.92627963661408	266.10522693040974	
2.412888520058357	482.11154495725475	347.4051657154331	-69.39920847803322	347.40516571543304	750.226057846395	-73.27589598024562	-69.39920847803369	-73.27589598024622	268.28008312558904	
2.463157030892906	411.9467898817895	328.597616155129	-39.81619237352261	328.59761615512883	701.7385645277561	-13.618294438561641	-39.816192373522966	-13.618294438562256	275.6816751120319	
2.513425541727455	328.5365203825394	303.3717034261348	-22.556497508189626	303.37170342613473	608.8272488715686	49.84459804122467	-22.556497508189892	49.84459804122403	288.38776178503474	
2.563694052562004	240.4245369358177	273.7213630767937	-20.634653512823633	273.7213630767935	477.067427709205	108.63728921965462	-20.634653512823803	108.63728921965398	305.69866679269575	
2.6139625633965533	155.50408546235514	241.5193458627641	-34.591655775032564	241.519345862764	318.8297434618752	154.31812168360534	-34.591655775032656	154.31812168360472	325.87900289455496	
2.664231074231102	78.84569092467012	208.64285819604245	-62.25595799744363	208.64285819604225	150.8791096914449	179.938256167359	-62.2559579974437	179.93825616735836	346.1774242157529	
2.7144995850656515	12.211575310531003	176.8505317084281	-99.0451846509441	176.85053170842795	-8.084411769432677	181.2115300059603	-99.04518465094412	181.21153000595967	363.18244682969413	
2.7647680959002003	-46.123040354227044	147.38766206503868	-138.78493762894442	147.38766206503846	-142.00178214116934	157.2118995534109	-138.78493762894445	157.21189955341032	373.4832174115421	
2.8150366067347496	-99.45151269115279	120.58386814362972	-174.82440825757467	120.58386814362952	-240.18086857925084	110.59557895807532	-174.8244082575747	110.59557895807484	374.43310849149816	
2.8653051175692985	-150.82602033776803	95.83053533355692	-201.2366852370041	95.83053533355668	-300.0065034570506	47.13148927728934	-201.23668523700414	47.1314892772889	364.882740658383	
2.915573628403848	-200.30836667047862	71.73501342420451	-213.78558429652415	71.73501342420434	-326.2360395151687	-25.264216841374353	-213.78558429652418	-25.264216841374704	345.6355388927246	
2.9658421392383967	-244.29182396471307	46.878133623576986	-210.5414184000619	46.878133623576815	-329.5416764367753	-97.95288659528936	-210.54141840006193	-97.95288659528968	319.54510657694306	
3.016110650072946	-275.6344375840523	20.403687783783894	-192.04372566178571	20.403687783783823	-322.70533233076304	-163.17627506072728	-192.04372566178577	-163.17627506072756	291.1171835494649	
3.066379160907495	-286.5804180098455	-7.489271527986332	-161.19602719105274	-7.489271527986347	-317.1758293224977	-215.3443059035713	-161.19602719105274	-215.34430590357147	265.50511852683616	
3.116647671742044	-271.64643175268066	-35.35836069893305	-122.81618367457838	-35.35836069893303	-320.26158428550445	-251.78746486565672	-122.81618367457838	-251.78746486565683	247.15782911046833	
3.166916182576593	-230.69795092916257	-60.86043110610822	-82.88092179616709	-60.86043110610821	-333.977626806433	-272.6435583933388	-82.8809217961671	-272.6435583933389	238.47195421190028	
3.2171846934111423	-169.83369427036178	-80.99940728297635	-47.67109798733485	-80.9994072829763	-355.42358155954173	-279.9760759059501	-47.67109798733487	-279.97607590595015	238.99924962095116	
3.2674532042456916	-100.51720845542746	-92.91530056564036	-22.67513043300719	-92.91530056564031	-378.4859930093964	-276.5800553895449	-22.67513043300717	-276.5800553895449	245.44195818573525	
3.3177217150802405	-36.07117745561823	-94.11258838458863	-11.587013488128775	-94.11258838458855	-395.7971157562372	-264.8614335068349	-11.58701348812879	-264.86143350683477	252.58647756294732	
3.36799022591479	11.908118142191654	-82.97064720139747	-15.593211664240016	-82.97064720139738	-401.1619687011718	-246.28916770030108	-15.593211664240023	-246.289167700301	254.79873813388417	
3.4182587367493387	36.84784689888288	-59.233642990129454	-33.25661212990024	-59.23364299012936	-390.83808175724596	-221.5366044776327	-33.25661212990027	-221.5366044776326	247.39623811557547	
3.468527247583888	38.601159793581985	-24.32898740757954	-60.996796973841455	-24.32898740757944	-364.0267603467888	-191.06622978000752	-60.996796973841484	-191.0662297800075	227.59452162559023	
3.518795758418437	22.84723317423329	18.66327043133811	-93.96899380620326	18.663270431338226	-322.5195288392255	-155.86770234459325	-93.96899380620329	-155.86770234459323	194.75169813235163	
3.569064269252986	-1.1574110133492574	64.98381215548903	-127.2666635705697	64.98381215548915	-269.66721645151864	-117.93517292009352	-127.26666357056979	-117.93517292009348	150.1688965329027	
3.619332780087535	-24.074681093244266	109.11221917385807	-156.85937662530438	109.11221917385821	-208.5119873454707	-80.37767440643015	-156.85937662530444	-80.3776744064301	96.77467827905889	
3.6696012909220843	-38.82287326071026	145.23252470255633	-180.14095107657144	145.23252470255647	-141.35088903792703	-47.05004663255909	-180.14095107657153	-47.05004663255906	38.84093738901956	
3.719869801756633	-42.50240087271186	168.37103671367896	-195.9751275399317	168.3710367136791	-69.16457705055447	-21.777665940253073	-195.97512753993178	-21.77766594025305	-18.173100707925883	
3.7701383125911825	-36.491381742653225	175.37583264601636	-204.35444957259523	175.3758326460165	7.376398647454636	-7.479818507715834	-204.35444957259529	-7.47981850771583	-67.92564739953326	
3.8204068234257313	-25.07803533907893	165.38954039273733	-205.8911581179696	165.38954039273747	87.0470544507507	-5.204955710134797	-205.89115811796967	-5.204955710134804	-103.98237984366266	
3.8706753342602807	-13.899153863332998	140.0618898018921	-201.32091483693932	140.06188980189225	166.87156644356278	-13.518429421508394	-201.32091483693935	-13.5184294215084	-121.03499764603096	
3.9209438450948295	-7.824873895149157	103.53262701106009	-191.2331197264054	103.53262701106021	242.17662053791304	-28.291088510461705	-191.23311972640533	-28.291088510461712	-116.4079904445405	
3.971212355929379	-9.856676072721388	61.71941789822842	-176.0403257485836	61.71941789822855	307.4860006121055	-43.37303870032673	-176.04032574858354	-43.37303870032673	-91.1471482374589	
4.021480866763928	-20.590579907075053	21.34952030838627	-156.19122564255673	21.34952030838638	357.7720443204165	-52.01433449428159	-156.19122564255665	-52.014334494281606	-50.26595438306748	
4.071749377598477	-38.520792987164754	-11.13265787685981	-132.50050446082778	-11.132657876859696	390.1522929005099	-48.74591224689595	-132.50050446082764	-48.74591224689594	-1.7363565707397655	
4.122017888433026	-61.010042752027076	-30.827512576695575	-106.46133356652567	-30.827512576695504	404.74539498357	-31.21432705132824	-106.4613335665255	-31.214327051328226	45.4740246122317	
4.172286399267575	-85.18877029256105	-35.26954533899956	-80.38593068214693	-35.269545338999514	404.80176664914785	-1.266101562006483	-80.38593068214672	-1.2661015620064546	83.75433922441752	
4.222554910102124	-108.56143188123343	-24.819111141421736	-57.192712838161114	-24.819111141421693	395.7300234639938	35.17221791070722	-57.1927128381609	35.17221791070728	108.77990857370943	
4.272823420936674	-129.54925474286364	-2.4493102319659457	-39.94201344552191	-2.4493102319659315	384.4135114435899	69.57794002803563	-39.94201344552168	69.57794002803574	120.35336131264845	
4.323091931771223	-146.72597946367023	27.107716607369227	-31.1135038400661	27.107716607369177	377.69004086642633	93.0113170428767	-31.113503840065885	93.01131704287678	121.78512495916951	
4.3733604426057715	-158.2592514792492	58.67455477965096	-31.806987683086724	58.67455477965083	381.6125327644228	98.48312125522122	-31.806987683086497	98.48312125522132	118.26183834346054	
4.42362895344032	-160.82700255581642	87.7233363532086	-41.20247987589268	87.7233363532084	400.97965877862345	82.53328654108238	-41.20247987589246	82.53328654108255	114.8055596177064	
4.47389746427487	-149.43728791513055	111.2271047818305	-56.457148102983766	111.22710478183029	438.6805687739907	45.70750435350831	-56.45714810298354	45.70750435350853	114.55854943343084	
4.524165975109419	-118.4340084707954	127.63272859258072	-73.08964326916464	127.63272859258043	495.02151819282926	-7.968004064926607	-73.08964326916444	-7.968004064926355	118.1258732250894	
4.574434485943968	-62.85746933915055	136.413657867386	-85.88276798151475	136.41365786738567	567.4810678638461	-72.30736661726795	-85.88276798151458	-72.3073666172677	123.99064409702484	
4.624702996778517	19.167216646535508	137.3853152276349	-89.92948453530244	137.38531522763455	649.9288699787563	-140.28165766884405	-89.9294845353023	-140.28165766884382	129.7748468571786	
4.6749715076130665	124.7355321477344	130.12453184824216	-81.65959691299253	130.12453184824182	732.8847690789863	-205.03174088974382	-81.65959691299238	-205.03174088974353	133.73271005031216	
4.725240018447615	245.93428573437052	113.89955651358721	-59.42023998768203	113.89955651358693	804.8310679239528	-260.4186384169132	-59.420239987681924	-260.41863841691304	135.88653847975604	
4.775508529282164	371.011303469273	87.92634407054658	-23.679942768392507	87.9263440705463	854.3216794108788	-301.2361000559713	-23.6799427683924	-301.23610005597106	138.33706934095986	
4.825777040116714	486.5705847363781	51.85659274373276	23.248742949920388	51.85659274373256	872.5382577998187	-323.42178781366886	23.248742949920427	-323.42178781366863	144.63061498596474	
4.876045550951263	580.8472828337907	6.33376363578601	77.71394792001122	6.333763635785832	855.6057787759353	-324.4012536583065	77.71394792001124	-324.4012536583063	158.40322785262575	
4.926314061785812	645.5051823068841	-46.99710932278265	135.22618291617582	-46.99710932278278	805.2575363012598	-303.725795880494	135.22618291617587	-303.72579588049376	181.8396626227938	
4.9765825726203605	676.8546809559218	-105.63355483899466	190.98253003282537	-105.63355483899484	728.2542125074153	-263.6850251697017	190.98253003282534	-263.6850251697015	214.3035782062832	
5.02685108345491	675.5640447982693	-166.66636742726314	240.38571422955192	-166.66636742726325	633.922645994325	-209.60087161162593	240.38571422955187	-209.60087161162562	251.88301698340098	
5.077119594289459	645.3565858409504	-227.07794341720324	279.5903942611049	-227.07794341720336	531.4486862973243	-149.45643171651213	279.5903942611048	-149.45643171651167	288.0870750930871	
5.127388105124008	592.1497857241237	-284.0824863863615	306.02967643136117	-284.0824863863616	427.7298676428725	-92.79317451108949	306.02967643136105	-92.79317451108894	315.5223475002199	
5.177656615958557	523.0040450464899	-334.68843114185563	318.83080461700905	-334.68843114185574	326.4607207562808	-48.96319021748696	318.830804617009	-48.963190217486364	328.231080546819	
5.227925126793107	445.38658465141555	-375.9455331475422	318.99226315707017	-375.9455331475421	228.76823155251387	-25.176103758720018	318.9922631570701	-25.17610375871935	323.84610266378536	
