# Stress in units of bar (10^5 Pa)
# z	Sxx	Sxy	Sxz	Syx	Syy	Syz	Szx	Szy	Szz
0.0	-486.4299587726864	107.75095670932912	59.320436868854074	107.75095670932902	-540.3117690965196	335.72918000605677	59.32043686885462	335.7291800060581	-49.59909215771851	
0.05233848880546625	-438.2087886727877	37.4287057722957	73.68404830582728	37.42870577229576	-547.6565289824925	343.4231271582503	73.68404830582797	343.42312715825165	-36.235694232729095	
0.1046769776109325	-383.72680336824106	-31.679333328802713	89.82672373669044	-31.6793333288025	-503.7912906612418	334.77163202495626	89.82672373669132	334.7716320249574	-23.822298398999294	
0.15701546641639874	-323.4499484350573	-92.73694653233363	104.57249914630356	-92.7369465323332	-430.21783244144524	310.7608864904788	104.57249914630464	310.7608864904796	-14.235489961190675	
0.209353955221865	-259.2271682730093	-138.52531880341434	115.4144438473686	-138.52531880341382	-355.62802920645635	274.33435284595754	115.41444384736984	274.33435284595794	-7.918630336157063	
0.2616924440273313	-197.3129416643123	-161.75166618371028	121.28124478082754	-161.7516661837097	-306.8927159705724	229.65013818727112	121.2812447808289	229.65013818727118	-4.610794983439169	
0.3140309328327975	-146.2152519784603	-156.9785705225171	122.50753324898388	-156.97857052251643	-300.43047595752506	181.02945549316	122.50753324898525	181.02945549315973	-3.8971657514384983	
0.36636942163826375	-110.6545545079963	-122.95239506546707	120.06297508573226	-122.95239506546653	-336.85306967171664	131.94223984945108	120.06297508573361	131.94223984945074	-5.437269797927396	
0.41870791044373	-86.56497526510377	-64.33956062770451	114.81187881022512	-64.3395606277041	-402.14377090032724	84.51691344640983	114.8118788102264	84.51691344640945	-8.973501122295861	
0.4710463992491963	-61.90166085813861	9.096646812703309	107.48947911293727	9.096646812703572	-474.152561147515	39.87539812413153	107.48947911293838	39.87539812413121	-14.182618045581812	
0.5233848880546625	-22.102854165300556	85.24309199617933	99.30167690204419	85.2430919961794	-530.6467308089904	-0.971814424556932	99.30167690204505	-0.9718144245571807	-20.55178822429728	
0.5757233768601288	42.26111704440689	153.98440525010616	92.43694288745498	153.98440525010614	-556.0625774545778	-36.361253811385126	92.43694288745556	-36.36125381138528	-27.234990863228365	
0.628061865665595	130.83706906512631	210.12315212864843	89.67070947625163	210.12315212864846	-543.9653342560666	-64.05194974558623	89.67070947625193	-64.05194974558626	-33.064349693231435	
0.6804003544710613	233.53516452563701	254.1686702869868	93.16411486670569	254.16867028698707	-496.7362965405158	-82.06646175635763	93.16411486670575	-82.06646175635751	-36.828314313824244	
0.7327388432765275	334.33911065616826	290.03621604314964	103.26241568462298	290.03621604315026	-423.20771767438794	-89.6973890423279	103.26241568462284	-89.69738904232764	-37.9124078113733	
0.7850773320819938	416.6453192118829	321.0519434352373	118.28957841637569	321.05194343523857	-335.6742849813563	-88.01451974822798	118.28957841637552	-88.01451974822751	-36.98115457568034	
0.83741582088746	466.5700076353228	347.03714796972463	135.42239570827738	347.03714796972645	-247.25854140357933	-79.67872208297297	135.42239570827726	-79.6787220829723	-36.34842363223721	
0.8897543096929262	474.95197948500925	364.15555615125584	152.0057638624137	364.1555561512582	-168.78158521312525	-68.32917357933513	152.0057638624137	-68.3291735793343	-39.525256239404115	
0.9420927984983926	437.07082845483274	367.34957595712694	166.45613162084535	367.3495759571299	-106.9985568012149	-58.05223544913993	166.4561316208455	-58.052235449138955	-49.96644065888167	
0.9944312873038588	352.927086390025	354.3490830399562	178.1644733525866	354.34908303995957	-64.34035277815904	-52.995862225706134	178.16447335258692	-52.99586222570511	-69.54625036332641	
1.046769776109325	228.16140724872847	327.94233613765414	186.5432767659905	327.94233613765755	-38.72572712734505	-56.77355054746456	186.54327676599104	-56.77355054746362	-97.47370430622128	
1.0991082649147912	74.88269306613464	295.4745975851491	189.88235055570158	295.4745975851524	-24.71496756775703	-71.54485323124202	189.8823505557022	-71.54485323124123	-130.0552470444671	
1.1514467537202575	-89.15592163040284	265.6635340986033	184.89797985973397	265.66353409860596	-14.921359672688183	-96.77832989985119	184.89797985973468	-96.77832989985059	-161.2943856120599	
1.2037852425257238	-244.45498351614708	244.71856748253657	167.69712905558976	244.71856748253873	-2.0929622471132774	-128.5281669796177	167.6971290555905	-128.5281669796173	-184.01640666548514	
1.25612373133119	-374.99390242093733	233.60555156651915	136.1760161331735	233.60555156652094	17.250154512261798	-159.8360566192054	136.1760161331742	-159.83605661920512	-191.33478396817173	
1.3084622201366563	-472.17754617163905	227.91665999390437	92.62187527353454	227.91665999390563	40.04886281629169	-182.39063853936887	92.62187527353521	-182.39063853936864	-178.40061121998608	
1.3608007089421226	-535.9408176881452	220.0418992413343	44.897746572545216	220.04189924133522	55.96835225987036	-188.95605946929422	44.89774657254587	-188.95605946929402	-143.89614912152535	
1.413139197747589	-572.476584972697	201.89350966490613	4.717093668881908	201.89350966490687	51.310844785550486	-175.62469438071136	4.717093668882534	-175.62469438071116	-90.5995908426545	
1.465477686553055	-589.7367469061522	167.82594435839022	-16.697042073030048	167.8259443583909	16.976135259563165	-143.02022753464067	-16.697042073029422	-143.0202275346404	-24.44064754602779	
1.5178161753585213	-592.4297684621348	116.76377734579677	-13.593536233549763	116.76377734579756	-44.161351782832355	-96.0913008949159	-13.59353623354911	-96.09130089491558	47.39583650889057	
1.5701546641639876	-577.939540352077	53.66915890512877	11.451165001143455	53.669158905129706	-114.50144332117867	-42.87629347455952	11.451165001144094	-42.87629347455909	118.36004931902858	
1.6224931529694537	-537.3224899958542	-10.044538437520984	48.42049083583678	-10.044538437519819	-167.24333050080634	7.138249359927769	48.42049083583741	7.138249359928267	183.38358999714447	
1.67483164177492	-460.5568893076936	-58.79438145204381	84.15630590837117	-58.794381452042586	-177.69990740957297	44.94356319854415	84.15630590837176	44.94356319854469	238.54702463464378	
1.7271701305803864	-346.46261535675364	-77.85471227539036	107.83680093342407	-77.8547122753891	-134.84185258635546	64.2561723893651	107.83680093342464	64.25617238936564	279.884296387229	
1.7795086193858525	-208.58692808354226	-59.70289403310632	114.87552871736615	-59.70289403310531	-45.84654317176961	63.82961255736262	114.87552871736663	63.82961255736308	301.9371953734898	
1.8318471081913188	-73.61719619422519	-8.834894865732515	107.3772648646475	-8.83489486573194	67.04685825309161	48.64236712704104	107.37726486464788	48.642367127041304	297.02375978932037	
1.8841855969967851	29.6862797866049	58.8040940162766	91.21259025566167	58.80409401627664	176.53567420464378	28.447746538829687	91.21259025566194	28.447746538829758	256.35309861128314	
1.9365240858022512	84.84637179000634	121.5119247958708	71.93166783352437	121.51192479587036	262.02921193379166	13.390230718728546	71.93166783352454	13.390230718728404	173.85941147088545	
1.9888625746077175	95.12052663906428	159.76118297087328	52.12559423372474	159.7611829708725	316.75931910004	8.819224495944937	52.12559423372484	8.819224495944638	51.820216124551436	
2.0412010634131836	80.06216469732965	162.38478572714814	31.926841363685313	162.38478572714712	348.1432378181929	12.748794138234643	31.926841363685373	12.74879413823423	-94.76573999591008	
2.09353955221865	62.375413687781815	129.0174811985536	12.010595911120038	129.0174811985525	370.54845185914746	17.880785925976085	12.010595911120092	17.880785925975616	-238.7525925582403	
2.1458780410241163	55.99142396782503	69.08035160956904	-3.2537956909038446	69.08035160956817	396.2744392102356	16.471282846064426	-3.2537956909037646	16.471282846064	-347.56771259634894	
2.1982165298295824	61.240173609959356	-1.3885656704624125	-5.168288279512819	-1.3885656704630946	429.308679031403	3.9998241387629037	-5.16828827951268	3.9998241387625093	-393.53830806406035	
2.250555018635049	70.15678564581845	-64.321670765552	16.16958467007096	-64.32167076555241	465.57517290317963	-20.84456008212271	16.16958467007119	-20.844560082123053	-362.7641958541522	
2.302893507440515	75.20061712173458	-105.22346194360128	66.1563642093236	-105.22346194360144	498.51224735402184	-58.89552011112052	66.1563642093239	-58.8955201111208	-258.68218830302794	
2.355231996245981	75.06987221950769	-117.76038152860214	140.461156719264	-117.76038152860207	522.8268995072216	-112.25358386798229	140.46115671926435	-112.25358386798256	-99.8531003878554	
2.4075704850514477	73.32329369592412	-105.80296892691788	223.74690580497946	-105.80296892691769	535.8020638180362	-182.6007436248925	223.74690580497986	-182.60074362489274	86.03350667519693	
2.4599089738569138	73.63332992438828	-81.13448716702277	293.74474136700076	-81.13448716702243	535.3438729960214	-267.19431329589025	293.7447413670011	-267.1943132958905	269.2024918043619	
2.51224746266238	75.47757036740562	-57.350956290945675	329.24561038825647	-57.35095629094533	519.3149548760084	-356.2324108397607	329.2456103882569	-356.23241083976086	424.168328642995	
2.5645859514678464	74.17561672456264	-43.14399922017951	318.153214876099	-43.14399922017914	487.8522104260394	-434.5584811743694	318.15321487609947	-434.5584811743695	534.510680518105	
2.6169244402733125	64.29861684608107	-38.4058303943493	262.0691761904761	-38.40583039434902	445.2621464267148	-487.28163407380544	262.0691761904765	-487.28163407380544	595.3209091417223	
2.669262929078779	43.88966330589399	-35.44325404533404	175.3015522079066	-35.44325404533379	399.44121855811727	-505.83090257347334	175.30155220790695	-505.8309025734734	612.6557343228844	
2.721601417884245	16.68345571690766	-23.875777892398396	79.27418967167685	-23.875777892398233	357.58644836425987	-490.54572622529497	79.27418967167715	-490.545726225295	600.0233686946628	
2.7739399066897112	-9.114188401296914	3.5536501064863018	-5.236117498495361	3.5536501064864012	323.2027786408247	-448.61712572985715	-5.236117498495133	-448.6171257298571	573.1197079436655	
2.826278395495178	-24.623760090315145	47.83915196811052	-64.95129415200869	47.839151968110556	296.67392460796924	-389.4509185816711	-64.95129415200856	-389.45091858167103	544.5641023182231	
2.878616884300644	-24.75604617880628	104.12211651784182	-97.57364281663318	104.12211651784179	278.1757736002436	-320.57545667518514	-97.57364281663314	-320.57545667518514	520.2582432208349	
2.93095537310611	-9.91340553612828	164.12627548355326	-110.51158004017664	164.12627548355323	269.09391163985157	-246.16628174885136	-110.51158004017665	-246.16628174885136	498.27730168441735	
2.9832938619115765	13.967018157337975	219.0651502735658	-115.36725681461013	219.0651502735658	268.24166349060647	-168.240606651581	-115.36725681461013	-168.240606651581	470.5321657345207	
3.0356323507170426	38.8999580074553	260.990566324356	-120.865370567048	260.990566324356	267.10913242539624	-88.73467790808719	-120.865370567048	-88.7346779080872	426.90208802469505	
3.0879708395225087	57.16092394866418	283.67649265971136	-127.88381126779919	283.6764926597113	248.79265873201325	-10.793728247147758	-127.88381126779916	-10.793728247147802	360.6395066683011	
3.1403093283279753	64.6659268809151	283.9458552318267	-129.42938537411356	283.9458552318266	195.56561645406475	61.27598782572964	-129.42938537411354	61.27598782572957	272.7950038323605	
3.1926478171334414	62.48752943461224	262.8090171621352	-115.4544114576317	262.8090171621351	99.42438944592752	123.17527549005905	-115.45441145763165	123.175275490059	173.4519736971452	
3.2449863059389075	56.38983333269077	226.1613286851477	-79.69074018136959	226.1613286851476	-30.233351373521884	172.26852833715716	-79.69074018136948	172.26852833715708	78.65599311700811	
3.297324794744374	53.440528642996696	183.1828747819633	-24.28304007922322	183.18287478196322	-166.70803762830892	209.21214653472595	-24.28304007922308	209.2121465347259	4.068583831663204	
3.34966328354984	56.74498639832069	143.4632073603207	40.2690240463727	143.46320736032064	-275.43228744912113	238.86626077006542	40.26902404637285	238.8662607700653	-41.6499173305426	
3.402001772355306	62.08501820159391	113.81558800466374	99.55374550355764	113.81558800466368	-326.65569007084764	269.4477288673028	99.55374550355776	269.44772886730277	-60.36413013601698	
3.4543402611607728	59.13210310922999	96.91361335085156	141.31119021122092	96.91361335085153	-306.746283415646	309.22915461010166	141.31119021122106	309.22915461010155	-63.23627607888717	
3.506678749966239	37.80327034654159	91.83316853357917	159.595787320449	91.83316853357914	-223.0256541860812	361.5526680086377	159.59578732044912	361.55266800863757	-65.44487513860187	
3.559017238771705	-4.698652175102147	95.43836355595604	155.5246251483622	95.43836355595602	-100.67055574534545	420.95744878161076	155.52462514836233	420.9574487816107	-79.34473309983494	
3.6113557275771715	-61.49419077328034	103.0084298100097	135.00677540297258	103.00842981000967	25.1062357356181	473.6056578023772	135.00677540297266	473.6056578023772	-109.08302559778504	
3.6636942163826376	-119.66214810642863	108.2191246772934	105.41294785006376	108.21912467729334	120.28144259115784	502.7200493949554	105.41294785006386	502.7200493949555	-148.73835144112832	
3.7160327051881037	-167.19913358451677	103.76845146977777	73.28429729212027	103.76845146977776	161.80323732315483	496.6126331456268	73.28429729212034	496.6126331456269	-184.8863978394976	
3.7683711939935702	-197.66960423717674	83.65407279195044	43.8900720191923	83.65407279195038	144.7338239045986	454.5580735946303	43.890072019192374	454.5580735946304	-202.38059049411493	
3.8207096827990363	-209.50784635059756	46.17834282928119	22.02763691079477	46.17834282928118	83.65804695885775	387.298436358105	22.027636910794826	387.29843635810505	-191.03242746417214	
3.8730481716045024	-202.09094328281185	-4.267271021453688	12.522062309449245	-4.267271021453709	7.547904981428957	312.0880348745467	12.522062309449302	312.08803487454674	-150.3916825361979	
3.925386660409969	-172.9286994985012	-57.96941905746079	19.402959382976604	-57.96941905746083	-51.485339086204505	245.65226386463175	19.402959382976668	245.6522638646319	-90.48829260967344	
3.977725149215435	-119.32062826836437	-102.70907283136788	44.09116045350849	-102.70907283136788	-70.97572051762282	198.73217128797145	44.09116045350858	198.7321712879716	-28.40897097393112	
4.030063638020901	-42.75553148758514	-126.81232783694736	83.65462611163719	-126.8123278369473	-46.21331422454887	174.24701664861468	83.65462611163733	174.24701664861487	17.549851437709165	
4.082402126826367	48.254171977348065	-121.45467859712298	130.20293528679588	-121.45467859712288	9.18287817202949	168.63852699491835	130.2029352867961	168.63852699491855	33.073450490526746	
4.134740615631834	139.55740920767414	-82.87602314621037	171.8152904359512	-82.87602314621026	71.27423996625777	174.66274832396556	171.81529043595143	174.6627483239658	10.248884811700869	
4.1870791044373	216.76604467729769	-14.168036678968392	194.83050597732017	-14.168036678968278	117.02515162319531	184.07338058009265	194.8305059773204	184.07338058009293	-52.39475393359467	
4.2394175932427665	270.7438283477153	73.99463753050534	187.22792087781335	73.99463753050546	134.03770167099555	189.68078235407697	187.22792087781363	189.68078235407728	-149.81474967947358	
4.291756082048233	300.4743420576701	164.8631449837464	142.8609008923811	164.86314498374645	124.27186876757162	186.7752394535445	142.86090089238138	186.77523945354477	-269.1813559922081	
4.344094570853699	313.0204465642528	240.52663299960477	65.23922466529014	240.52663299960477	100.55696388060879	173.6712714290367	65.23922466529038	173.67127142903692	-388.97100304629583	
4.396433059659165	321.3880285353829	287.0598414719514	-31.419268767813413	287.0598414719515	78.8434689660601	151.11109572176395	-31.419268767813215	151.11109572176412	-482.09818070018355	
4.448771548464632	340.7913881994591	298.0976939823817	-125.48799976830168	298.09769398238166	70.66075269050282	120.7314674750335	-125.48799976830156	120.73146747503354	-524.5068619352131	
4.501110037270098	383.29711746759943	275.55038397751105	-194.8566200075756	275.55038397751105	79.36900716954437	83.2927682933311	-194.85662000757554	83.29276829333102	-505.8194563016733	
4.553448526075564	450.60587720250976	227.32498293073425	-224.10129324920644	227.3249829307343	99.8271436306683	37.74275261047604	-224.10129324920644	37.742752610475875	-435.10215140944126	
4.60578701488103	528.6529265533156	164.80427465010445	-208.58001233757395	164.80427465010445	120.08791264082043	-18.134854651112665	-208.58001233757398	-18.13485465111291	-336.8235493519571	
4.658125503686496	587.9781324030239	100.16035214762304	-154.01724408543646	100.16035214762304	124.75847901458621	-85.78898159069753	-154.0172440854365	-85.78898159069783	-238.84335662961453	
4.710463992491962	596.1657253251137	44.869238358199794	-73.30619814958703	44.869238358199794	100.53668301653903	-163.57809475024308	-73.30619814958703	-163.5780947502434	-159.81972083486087	
4.762802481297429	535.5424578822392	8.022025128518617	17.168706466040106	8.022025128518518	43.828087996002594	-245.2623457843062	17.16870646604015	-245.2623457843065	-103.88942063696001	
4.815140970102895	417.0669306618995	-5.69612488947115	100.58650151505526	-5.696124889471264	-33.99637186345616	-320.19960029502727	100.58650151505535	-320.1996002950274	-64.56525018997803	
4.867479458908361	278.1024376756305	2.0644903683296434	162.25761583958655	2.064490368329473	-109.86706737890296	-375.79544696226725	162.25761583958663	-375.7954469622673	-33.674857697540105	
4.9198179477138275	164.07422355726135	23.02702100402962	192.50441837374302	23.02702100402948	-160.1341813573432	-401.659784506056	192.5044183737431	-401.65978450605587	-8.359302021241088	
4.972156436519294	105.58992685354312	44.62951006551014	189.28414806782325	44.62951006551006	-173.81209208180707	-393.70497701410795	189.28414806782334	-393.70497701410784	7.947035350889138	
5.02449492532476	106.25754809408406	54.80059245752889	158.87142196671198	54.80059245752889	-157.00469007841784	-356.0553387470767	158.87142196671203	-356.05533874707646	9.87997557189211	
5.076833414130227	148.04819294578806	47.00495630921699	113.6680109561018	47.00495630921728	-125.35719668735501	-299.3224088416207	113.6680109561018	-299.3224088416205	-4.113490545535392	
5.129171902935693	207.52038720000422	23.30480760625113	67.75524024427752	23.304807606251643	-91.26531596743507	-236.04863438960575	67.75524024427746	-236.04863438960558	-28.605369826447255	
5.181510391741159	269.51304680921226	-5.843924619436223	32.27671335139732	-5.843924619435597	-55.925166143687164	-175.83318166003133	32.276713351397234	-175.83318166003124	-52.18809381690132	
5.233848880546625	330.35476163597434	-25.673355681307527	12.648616453858994	-25.673355681306845	-11.989340618123805	-122.87192394181847	12.648616453858844	-122.87192394181852	-61.641882992691194	
5.286187369352091	391.50938882593937	-22.95121306197181	8.374155387395177	-22.951213061970954	47.25967500433847	-76.7142948685148	8.374155387394998	-76.71429486851488	-46.98717176011505	
5.338525858157558	452.97164208217305	7.558315495526514	14.784349310131635	7.558315495527282	121.24386688749503	-35.0184446399672	14.784349310131457	-35.0184446399673	-5.347971183126745	
5.390864346963024	511.1109343879701	59.50273910707824	25.42992265638923	59.50273910707902	202.91136706704268	3.9143685159485004	25.42992265638912	3.914368515948413	57.69069538519036	
5.44320283576849	561.8393096359987	116.6601070417244	33.929735182619055	116.66010704172524	283.8838222065681	40.103773707264985	33.92973518261905	40.10377370726496	129.48839439498798	
