# Stress in units of bar (10^5 Pa)
# z	Sxx	Sxy	Sxz	Syx	Syy	Syz	Szx	Szy	Szz
0.0	189.06447709907457	-132.66907370454373	80.23093049425599	-132.66907370454317	-44.653712013636394	190.32351258982314	80.2309304942557	190.3235125898229	116.18046376846715	
0.05314737202549227	193.976558070725	-123.54013742020544	71.82688406471652	-123.54013742020447	-37.01351428139756	177.83534013371147	71.82688406471627	177.83534013371138	101.18863018875031	
0.10629474405098455	201.8614521892075	-103.08247238728833	62.23612163445091	-103.08247238728703	-28.30057378665041	157.51617857880785	62.23612163445073	157.51617857880794	84.6138718225825	
0.15944211607647682	212.07631110853697	-74.53182826580317	52.39270081358582	-74.53182826580175	-14.659731883315533	129.83585874481935	52.392700813585684	129.8358587448196	68.95615002082631	
0.2125894881019691	226.885384410008	-42.190518933179305	43.29565229978839	-42.19051893317788	7.771434701449394	96.68561023107831	43.295652299788316	96.68561023107871	55.717420689816045	
0.26573686012746134	250.39249017738337	-8.885104200963148	35.39231326721923	-8.885104200961901	40.6559633124713	61.244357575893176	35.3923132672192	61.24435757589367	45.65481760712862	
0.31888423215295364	285.22799504106086	25.02419743085509	28.420404228270225	25.024197430856045	82.41263552053627	27.456446120631618	28.420404228270254	27.456446120632144	39.05648477300272	
0.37203160417844594	329.27602460908435	60.82067687773993	21.75172870999368	60.82067687774055	129.0928042291561	-0.7331096731026321	21.751728709993763	-0.7331096731021312	35.70770832763501	
0.4251789762039382	374.9481524075227	99.53282775326691	14.901460393586966	99.53282775326718	175.18804144499433	-20.221974863534477	14.901460393587094	-20.221974863534037	34.64945871167692	
0.47832634822943043	411.952842275987	140.2495203645172	7.826716940129345	140.24952036451708	215.17668423967902	-29.46852466295915	7.826716940129502	-29.468524662958767	34.16887284153373	
0.5314737202549227	431.6401273443587	179.50424833484436	0.8645576571800113	179.50424833484394	244.43252385230957	-28.916650213634057	0.8645576571801792	-28.916650213633737	32.425429016829746	
0.584621092280415	430.4784774581121	211.52631904980606	-5.533055570626771	211.52631904980544	260.6604713499893	-20.88852991534541	-5.5330555706266065	-20.88852991534514	28.50296299432269	
0.6377684643059073	410.6591322269654	229.79734519605836	-10.994242678770167	229.79734519605765	265.1939743187994	-8.785756885462396	-10.994242678770004	-8.785756885462185	23.252986188608702	
0.6909158363313995	377.8117239266402	229.09555311908576	-15.242218840699856	229.09555311908505	262.4645154580813	4.14036009996526	-15.24221884069967	4.140360099965424	19.219895904364563	
0.7440632083568919	338.0458471978394	207.57760408987372	-18.062100519531498	207.5776040898731	257.8226038681479	15.887120696559284	-18.062100519531253	15.887120696559416	19.530822468567905	
0.7972105803823841	295.57594825525274	167.7332271534991	-19.379385391039204	167.73322715349872	254.08464918920168	26.038996617695794	-19.379385391038873	26.03899661769587	26.36657700771899	
0.8503579524078764	252.2976838075861	115.65339231549278	-19.374122710883036	115.65339231549267	249.9873173586932	35.133893574302476	-19.37412271088261	35.13389357430249	39.96952281608532	
0.9035053244333686	208.66614622692816	58.7418477365669	-18.425311196689016	58.741847736567074	241.700691279058	43.52265247756752	-18.425311196688536	43.52265247756744	58.80908789766126	
0.9566526964588609	165.0141490440834	3.5379281365616926	-16.821243931976827	3.537928136562151	226.73399946762925	50.57714813493036	-16.82124393197636	50.577148134930226	80.80591853923735	
1.009800068484353	122.6111271750244	-45.13666088567839	-14.387723301837326	-45.13666088567771	207.15588739129018	54.6974565827924	-14.387723301836933	54.69745658279223	104.77332749883413	
1.0629474405098454	83.79949662756941	-83.58397691311141	-10.382039552247022	-83.58397691311058	189.32947967669026	53.9588565334593	-10.382039552246756	53.95885653345914	131.10659436751803	
1.1160948125353378	51.626393553965315	-108.4755439434625	-3.8575198594358273	-108.47554394346156	180.43402466382977	46.82428829535553	-3.8575198594356923	46.824288295355444	161.1669115919251	
1.16924218456083	29.052146433100795	-116.91915603646945	5.738983099252826	-116.91915603646846	183.77535746563672	32.58041086617581	5.738983099252854	32.58041086617578	195.65583756096862	
1.2223895565863223	17.908704218124562	-107.94593491772173	18.06860385545435	-107.94593491772072	196.68533810279024	11.583323022352719	18.068603855454324	11.583323022352717	232.96535026272764	
1.2755369286118146	18.124566387501382	-83.78522229384129	31.79313760554447	-83.78522229384032	211.92241618148753	-14.484544466639905	31.793137605544462	-14.484544466639923	268.59610536472604	
1.3286843006373068	26.827258433151655	-50.23798143175315	44.927566842144856	-50.23798143175229	221.8092084409647	-42.44750677365769	44.92756684214491	-42.4475067736578	296.2176947447031	
1.381831672662799	38.28280317605136	-15.523392578508489	55.48803402849869	-15.523392578507801	221.86697915370505	-68.04267024231969	55.48803402849886	-68.0426702423199	310.01947144172726	
1.4349790446882913	45.12283001941561	12.066565884666993	62.24323080331271	12.066565884667504	212.8229971598075	-87.15935392170674	62.243230803312976	-87.15935392170701	307.2689852734685	
1.4881264167137838	40.99674070905749	26.61393941374555	65.20243014767189	26.613939413745832	199.03273926810473	-97.61554461728107	65.20243014767227	-97.61554461728136	289.7415881059187	
1.541273788739276	24.23614897498625	26.20955567299443	65.59016350377856	26.20955567299447	186.52472345542768	-100.6205942117201	65.59016350377904	-100.62059421172033	263.3282668836815	
1.5944211607647683	-0.5769368652453011	13.124252225145458	65.29459658443669	13.124252225145266	180.6505155287211	-100.89719684969498	65.29459658443724	-100.89719684969509	235.84235601372723	
1.6475685327902605	-23.18024315353722	-7.788359976247573	66.06406383089777	-7.7883599762479925	185.49219186093416	-105.12725896234944	66.06406383089836	-105.12725896234944	214.128234509851	
1.7007159048157527	-31.70872176252702	-31.51947515092442	68.97803071316882	-31.519475150925075	204.02984818439865	-119.20656569849608	68.97803071316943	-119.206565698496	201.90949140021303	
1.753863276841245	-17.324686347539128	-55.186384730967276	74.40677773564943	-55.186384730968086	238.9166369006951	-145.59901518654033	74.40677773565002	-145.59901518654016	199.37149070346896	
1.8070106488667372	23.02755141995101	-78.76628696657423	82.23112623216932	-78.76628696657505	292.53875736705777	-181.98750117899257	82.2311262321699	-181.98750117899237	204.41753638583737	
1.8601580208922295	87.1657664009337	-103.80663868492556	92.09172351173632	-103.80663868492638	367.16853210048873	-221.81172055578128	92.0917235117369	-221.81172055578105	214.39262296731903	
1.9133053929177217	170.30856309694323	-131.41320171659655	103.55215679773997	-131.41320171659734	464.1202988840146	-256.46857166209054	103.55215679774051	-256.4685716620903	227.1406830268801	
1.9664527649432142	267.6958947806976	-160.46497017248444	116.36131298864177	-160.4649701724852	582.5684124581214	-278.19935185406075	116.36131298864234	-278.1993518540605	241.0667470124315	
2.019600136968706	375.2930728520742	-187.44683202701302	130.7367272366349	-187.44683202701373	717.5809126370435	-282.6309169183533	130.73672723663546	-282.63091691835314	254.88790399748245	
2.0727475089941985	489.19376461243	-207.82477402095924	147.28812215544983	-207.82477402095992	859.0583086778679	-270.10141086791765	147.2881221554504	-270.1014108679175	267.81986760788874	
2.1258948810196907	604.3812273407561	-218.38856635882524	166.27148265546955	-218.38856635882593	992.9756916222047	-245.3079842883896	166.27148265547012	-245.3079842883895	280.024411375794	
2.1790422530451834	713.7775380930984	-218.69278159377362	186.34842127204644	-218.69278159377433	1104.9737199998522	-215.331581175651	186.34842127204698	-215.33158117565088	292.32497505694215	
2.2321896250706756	807.2356845490862	-211.12145867347496	203.80210005382907	-211.1214586734758	1185.0083077490162	-186.77084219446192	203.8021000538295	-186.77084219446172	304.6960190999738	
2.285336997096168	872.4868597161777	-199.02300774483803	213.1684996725659	-199.02300774483888	1230.0374487971512	-163.28606546120892	213.16849967256627	-163.28606546120864	314.3164438427693	
2.33848436912166	896.6933968089049	-184.60098346080673	209.41942822739577	-184.60098346080764	1242.0076363124103	-144.6284449847616	209.419428227396	-144.6284449847612	314.96051896078205	
2.3916317411471524	871.1064893087605	-167.67818959248982	190.59182760092932	-167.6781895924907	1222.4795735665425	-127.53447137585394	190.5918276009294	-127.53447137585347	298.9446986699885	
2.4447791131726446	795.0374701002204	-145.92801274807556	159.227655887857	-145.92801274807636	1167.8980203365354	-107.87284057905194	159.227655887857	-107.8728405790514	261.0153036421676	
2.497926485198137	676.6872042159828	-116.70874804764267	121.47815498909378	-116.7087480476434	1069.0204213176767	-83.00568879106382	121.47815498909372	-83.00568879106328	201.8670693868745	
2.551073857223629	530.2967709079044	-79.17052675394622	84.43477746489172	-79.17052675394683	916.4412171252042	-53.236694000660734	84.43477746489165	-53.23669400066019	129.12254837441935	
2.6042212292491214	371.2265957840792	-35.92268185342799	53.235128899859056	-35.922681853428436	709.7833673063116	-21.83916775627994	53.23512889985894	-21.839167756279416	55.12728427474059	
2.6573686012746136	213.41072444441875	6.632007575179074	29.59654989508668	6.632007575178747	464.5057609053173	6.361576290414451	29.596549895086568	6.361576290414927	-7.376255622982704	
2.710515973300106	68.54782490059834	39.66879513421247	12.199859143207343	39.668795134212246	211.2724666541692	27.031128953582915	12.199859143207208	27.031128953583334	-49.43089421072143	
2.763663345325598	-53.583516111704654	54.914386464996255	-1.8384448836799283	54.914386464996056	-13.472826037928229	37.813115441644314	-1.8384448836800527	37.813115441644655	-68.07117211851653	
2.8168107173510903	-146.6787522384675	48.523139901514725	-15.484126736661386	48.52313990151464	-180.62206868595285	38.53289679916425	-15.484126736661505	38.53289679916454	-65.86824045459191	
2.8699580893765826	-209.74403223920797	23.70969681064372	-30.694258003292383	23.70969681064355	-278.4235833969397	30.278080268406967	-30.69425800329246	30.27808026840721	-48.66155654013272	
2.923105461402075	-246.69593620931477	-9.826618534821762	-47.64776299180383	-9.826618534821948	-313.2336696183391	14.344668929117574	-47.64776299180387	14.344668929117775	-22.912370104811302	
2.9762528334275675	-263.9007595149648	-39.8580653461577	-64.29792012384058	-39.85806534615787	-303.0112462712333	-8.00156445750805	-64.29792012384056	-8.001564457507882	5.896320332285928	
3.0294002054530598	-266.2818638552994	-56.914645553755506	-76.8225902999771	-56.91464555375572	-267.3999897686794	-34.850696695571294	-76.82259029997705	-34.85069669557116	33.44976916139131	
3.082547577478552	-256.08081367741835	-57.39081831218924	-81.20943442073275	-57.3908183121894	-221.05192965117007	-62.94195529022936	-81.20943442073266	-62.941955290229245	56.01378026500591	
3.1356949495040443	-234.21768445947998	-43.2435461840992	-75.38596020648862	-43.24354618409937	-171.8891860004337	-87.88337413124098	-75.38596020648856	-87.88337413124088	70.12580386228193	
3.1888423215295365	-202.56063748022555	-19.365584684626086	-60.62502387853107	-19.3655846846263	-124.08261843141638	-105.42372047795604	-60.625023878531024	-105.42372047795598	73.26869054686931	
3.2419896935550288	-164.91063903577074	9.130141732404873	-41.13659985081895	9.13014173240466	-81.24098239702849	-113.06280564946273	-41.13659985081896	-113.06280564946269	65.23847424133058	
3.295137065580521	-126.65429202256519	37.854873395975666	-21.981873885588342	37.854873395975424	-47.48337000005	-110.9733284604662	-21.9818738855884	-110.97332846046615	49.238780348830474	
3.3482844376060132	-93.60256331844155	63.20942220972832	-6.610870140529492	63.20942220972807	-26.258324972681436	-101.57344569306123	-6.610870140529592	-101.57344569306119	31.751593356736688	
3.4014318096315055	-71.0537860515295	82.44335296391063	4.43504128154316	82.4433529639104	-18.21281103736871	-88.18074673401358	4.435041281543025	-88.18074673401354	20.77670849008395	
3.4545791816569977	-62.564680557406106	94.2145005622233	12.934744638054864	94.21450056222307	-20.022186150968125	-73.63415583734015	12.934744638054715	-73.63415583734013	22.891030909923685	
3.50772655368249	-69.06297389220512	98.54359905004014	21.2459378900396	98.54359905003996	-25.50628821263689	-59.77760734257906	21.245937890039468	-59.777607342579074	40.29620471818342	
3.5608739257079822	-88.54192404297089	96.47369067362332	30.799935623035587	96.47369067362317	-28.046339419665458	-47.82409650382549	30.799935623035488	-47.82409650382552	69.27074786825231	
3.6140212977334745	-117.26373659469905	89.40763164447635	41.82647076044928	89.40763164447625	-23.22726802599456	-38.81256713963046	41.82647076044923	-38.81256713963052	101.01916612522393	
3.6671686697589667	-150.50724832317877	79.29319146382721	54.06708396644514	79.2931914638271	-9.630023177951443	-33.464181407369935	54.06708396644513	-33.46418140737003	124.68149342134325	
3.720316041784459	-184.16097703870096	68.6504537644478	67.35225893053496	68.65045376444773	11.351490938033265	-31.39114552360421	67.352258930535	-31.391145523604308	131.23182806237708	
3.773463413809951	-214.65859849159963	60.0268458864939	81.20925932177852	60.026845886493874	36.51800295655134	-30.434061505896636	81.20925932177859	-30.43406150589672	116.59433388118717	
3.8266107858354435	-238.18419577025253	54.89064944481704	93.92849524180002	54.89064944481702	61.509050086954076	-26.95528461442178	93.9284952418001	-26.955284614421863	82.95654581511283	
3.879758157860936	-250.52592212574532	52.79517207168903	102.207266447641	52.795172071689024	81.4276109813881	-17.198055584141365	102.2072664476411	-17.19805558414145	38.065008787318575	
3.9329055298864284	-247.7118585437301	51.89442875183616	102.38313823918321	51.89442875183618	91.50132887208122	0.9494945419346008	102.38313823918334	0.9494945419345338	-7.042091333032811	
3.9860529019119206	-228.04772722184296	50.74858067445896	92.7211331250247	50.748580674459006	88.49374763712741	26.707440195024937	92.72113312502483	26.707440195024862	-41.24211943324745	
4.039200273937412	-193.37009313374884	49.991566307945455	75.24351827950039	49.99156630794553	72.42363513089755	56.35826454157513	75.24351827950049	56.35826454157504	-56.794773931886795	
4.092347645962905	-149.38245699017145	52.1421102286679	55.50722406022037	52.142110228668	46.359511352889115	84.43890286197852	55.50722406022046	84.43890286197842	-52.029155063754885	
4.145495017988397	-103.82467391237431	59.697556447401425	40.240643501190796	59.697556447401524	15.503019868815471	105.67423922380678	40.240643501190874	105.6742392238067	-31.98714042965392	
4.198642390013889	-63.7219209083613	72.66747688012074	34.04564734988592	72.66747688012087	-15.358688776732748	116.85977630293979	34.04564734988597	116.85977630293968	-6.483182042862076	
4.251789762039381	-32.333940574733866	87.19281398075302	37.09692203994466	87.19281398075319	-43.27628377868321	117.77587726829373	37.0969220399447	117.77587726829361	13.562818251379984	
4.3049371340648745	-7.413044434055266	96.70749286586614	44.8435495165722	96.70749286586627	-66.76791065556507	110.80532053417149	44.843549516572246	110.80532053417139	19.69130541996446	
4.358084506090367	18.122804055468606	95.10845865087401	49.72233335356382	95.10845865087418	-85.59877156662674	99.57248015830942	49.72233335356386	99.57248015830936	8.032440723347147	
4.411231878115859	53.64271110214578	80.21076874381063	43.950837883495446	80.21076874381077	-100.16788366148191	87.5348605717147	43.950837883495495	87.53486057171472	-20.165456866522373	
4.464379250141351	106.72626402750524	55.26877960134296	22.458240673801956	55.26877960134305	-111.92529034975087	76.9881505295543	22.45824067380202	76.9881505295544	-58.90846209831241	
4.5175266221668435	179.9292203301464	27.275261973664833	-14.870717865474965	27.275261973664847	-121.49929117584762	68.50919189696484	-14.870717865474916	68.509191896965	-98.38137109149118	
4.570673994192336	269.88094055561237	3.462269381911966	-62.40147582009245	3.462269381911881	-126.05240688321192	60.63700374690987	-62.40147582009246	60.63700374691012	-126.52588544113901	
4.623821366217828	369.030505578385	-12.033937381361696	-110.01040332374004	-12.033937381361923	-116.51533250210133	49.90580099755458	-110.01040332374009	49.90580099755487	-131.63732961943498	
4.67696873824332	468.35596599610875	-18.852588352989795	-146.35292456626462	-18.852588352990175	-78.43431607355467	31.74368677886696	-146.35292456626473	31.743686778867254	-105.71821215391995	
4.7301161102688125	560.0599342663469	-18.794748323899853	-163.04145796372407	-18.794748323900322	2.378253352613932	2.52423941300286	-163.04145796372427	2.524239413003098	-47.53225020118967	
4.783263482294305	638.0913491536387	-13.387169040664759	-157.8288294993651	-13.387169040665299	131.7922712942536	-37.8822002222107	-157.82882949936533	-37.882200222210514	36.077053819045645	
4.836410854319797	697.8140433526711	-2.5876205354714585	-135.2273949433501	-2.5876205354719843	302.05492578314727	-84.5940770027541	-135.22739494335036	-84.59407700275403	131.58315317877643	
4.889558226345289	735.8102237714317	14.443433720129793	-104.1907221032122	14.443433720129367	491.78024351060196	-128.61287816143147	-104.19072210321244	-128.6128781614315	222.7317775806884	
4.9427055983707815	750.5780834628757	37.09095863351045	-74.03347321710304	37.09095863351018	672.1894903774964	-160.2582987316504	-74.03347321710325	-160.25829873165054	295.6657959932669	
4.995852970396274	743.2140232957416	61.18460014660399	-50.762536452888725	61.18460014660386	816.0584601329838	-173.45613666292093	-50.76253645288889	-173.45613666292115	343.08354437034404	
5.049000342421766	717.0920802106552	78.9440218748662	-35.55418887704652	78.94402187486621	904.8833992619544	-168.41736586952086	-35.554188877046656	-168.41736586952112	365.3960229455038	
5.102147714447258	676.4947313037802	81.37395222139033	-25.986125281115644	81.37395222139035	931.4660007132122	-150.98442046903006	-25.986125281115825	-150.98442046903028	368.59974209286526	
5.1552950864727505	625.4647365238901	62.549672388513045	-18.974166465521783	62.549672388513216	898.9897394155498	-129.12851120950316	-18.974166465522025	-129.1285112095034	360.24865036188464	
5.208442458498243	568.7432783106015	23.415921272061283	-13.464069261757796	23.415921272061496	817.9789788667547	-108.9932793727287	-13.464069261758144	-108.99327937272892	345.7750478375043	
5.261589830523735	512.5480461678309	-27.279544617932338	-11.277947712298547	-27.279544617932007	703.5557053512058	-92.8650485256084	-11.277947712299017	-92.8650485256086	326.99645070347856	
5.314737202549227	463.9108255017212	-76.09578304021636	-15.67102831849072	-76.09578304021589	573.0233410979471	-79.90255643045207	-15.671028318491242	-79.90255643045228	303.1021110405503	
5.3678845745747195	426.69559316180096	-110.52196733646299	-28.74664164784586	-110.5219673364624	442.87112728396755	-68.30808687902278	-28.746641647846424	-68.30808687902302	273.10812568293215	
5.421031946600212	397.5373526844657	-123.99527536836949	-49.466764511752515	-123.9952753683688	326.0034525938847	-57.14101300327495	-49.466764511753055	-57.14101300327525	238.14906566985792	
5.474179318625704	365.5371656564549	-117.79127270125758	-73.55096829025327	-117.79127270125693	228.67356140747114	-46.67460375317146	-73.55096829025373	-46.67460375317181	202.09764256208152	
5.527326690651196	317.17804067127196	-98.92613915879883	-95.11482077415621	-98.92613915879826	150.17459762703106	-37.55335492435889	-95.11482077415658	-37.55335492435928	170.10423727314748	
