# Stress in units of bar (10^5 Pa)
# z	Sxx	Sxy	Sxz	Syx	Syy	Syz	Szx	Szy	Szz
0.0	232.80027192085512	-33.779238343863355	-61.738282693437995	-33.77923834386465	274.19809452880304	285.0082886622867	-61.73828269343756	285.0082886622878	83.44978565673634	
0.05035416379904683	294.66916108046973	-35.729699767254424	-61.597768384989	-35.72969976725569	337.22945119561507	270.91452405451867	-61.5977683849885	270.91452405451963	113.15870974330024	
0.10070832759809366	350.1983785222047	-36.84352142333641	-61.74930261152181	-36.84352142333769	412.96052574812444	250.93676263321555	-61.74930261152126	250.93676263321646	146.95147609045975	
0.15106249139714048	398.0115308345516	-36.62976463875088	-62.97098830325452	-36.629764638752086	498.3657733495264	226.72560957114203	-62.97098830325395	226.72560957114288	182.24870015485655	
0.20141665519618732	437.1048220402711	-34.70293474924453	-65.94374829165727	-34.7029347492457	588.8758353919568	199.99532545635572	-65.94374829165669	199.9953254563565	216.32696670850237	
0.2517708189952341	466.8595665684826	-30.949093484294835	-71.21187271902313	-30.949093484295943	678.6552827441969	172.32250422204658	-71.21187271902255	172.32250422204731	246.59716892733883	
0.30212498279428096	486.6379587825804	-25.314350828925406	-79.11744647380851	-25.314350828926457	761.0007089687208	145.00578861982336	-79.11744647380799	145.00578861982413	270.86803415609006	
0.3524791465933278	496.1242972965852	-18.00708146360163	-89.72443751300692	-18.00708146360263	829.0810337901778	118.9854016877048	-89.72443751300648	118.98540168770552	287.4996133583549	
0.40283331039237463	494.88453700779326	-9.402241429001819	-102.77176521410203	-9.402241429002785	876.6402506598486	94.84757069508973	-102.77176521410166	94.84757069509047	295.5125113322825	
0.45318747419142147	482.7074195175123	-0.1019555404619581	-117.6207071307856	-0.1019555404628889	898.955529286673	72.87784901139503	-117.62070713078529	72.8778490113958	294.5641843343649	
0.5035416379904682	459.4026873892898	9.200279237966058	-133.31031282609283	9.20027923796519	893.271939330319	53.12823470526592	-133.31031282609263	53.12823470526668	284.896167373218	
0.5538958017895151	424.9221441388036	17.664974508753186	-148.6108152961726	17.66497450875232	859.4123104924253	35.52027489771318	-148.61081529617243	35.520274897713946	267.2385440247051	
0.6042499655885619	379.5465135264287	24.615602108333846	-162.16672921677318	24.615602108333015	799.7769614237599	19.931409187449045	-162.16672921677304	19.931409187449837	242.6693803052251	
0.6546041293876088	323.79154969524234	29.422797906032493	-172.6740775054975	29.422797906031676	719.1259195751878	6.282021560385081	-172.67407750549737	6.282021560385876	212.50227344479822	
0.7049582931866556	258.5888847086656	31.950456669749787	-179.06749101434556	31.950456669748995	623.9244281597774	-5.426175802269784	-179.0674910143454	-5.426175802269009	178.1853881927119	
0.7553124569857025	185.42739714241233	32.418567985348076	-180.6540123203349	32.418567985347295	521.7041629635518	-15.097672632035904	-180.65401232033474	-15.09767263203515	141.25454676550694	
0.8056666207847493	106.28713330808873	31.402425543412242	-177.22963620512974	31.402425543411496	419.9348040301589	-22.545978657180175	-177.2296362051295	-22.545978657179457	103.25862785857494	
0.856020784583796	23.712081215695008	29.780379173292303	-169.07233257720014	29.78037917329162	325.57010400712505	-27.543219064535727	-169.07233257719983	-27.543219064535048	65.69094552095449	
0.9063749483828429	-59.532953382777066	28.442565674033478	-156.91562176866265	28.442565674032792	243.8605214870001	-29.90313883369965	-156.9156217686622	-29.90313883369902	29.960020752791607	
0.9567291121818897	-140.16217569964195	28.135014305701866	-141.83548162980875	28.135014305701255	178.31900200102513	-29.597320775488427	-141.83548162980824	-29.597320775487844	-2.664232924738304	
1.0070832759809365	-215.35893184771112	29.316500598336233	-125.08498237116827	29.316500598335736	130.08045065430042	-26.840992022404745	-125.08498237116764	-26.84099202240421	-31.106121174574636	
1.0574374397799835	-282.4369971255354	32.14502935841954	-107.95564175790793	32.145029358419	98.34035871761752	-22.14947044552457	-107.95564175790722	-22.14947044552407	-54.498546444005804	
1.1077916035790303	-339.46224138810965	36.50181769449769	-91.60350222620116	36.501817694497205	80.45000206515803	-16.351338081264792	-91.60350222620033	-16.351338081264345	-72.20877622670942	
1.158145767378077	-385.1946875444597	42.18201928081545	-76.93227192478783	42.182019280815084	72.71377867110122	-10.504169395279304	-76.93227192478695	-10.504169395278907	-83.83520126187189	
1.2084999311771238	-419.43999330425106	48.88611174080137	-64.50442246878139	48.88611174080105	70.83421818816547	-5.706971642286996	-64.50442246878045	-5.706971642286671	-89.24260489960011	
1.2588540949761706	-442.4875399333713	56.53423339234357	-54.547487248418314	56.53423339234332	70.93618808934374	-2.9100732258094055	-54.547487248417355	-2.910073225809157	-88.61078893748737	
1.3092082587752176	-455.26822142562156	64.87934676237724	-46.94015910956212	64.87934676237701	69.86417277759699	-2.6703795889688635	-46.940159109561144	-2.670379588968686	-82.41170145356666	
1.3595624225742644	-458.96634321957595	73.72201076029742	-41.32025772436579	73.7220107602972	65.90256973987208	-4.9873205567752095	-41.32025772436481	-4.98732055677511	-71.3783432985063	
1.4099165863733112	-454.80668326493384	82.57998922940368	-37.18294605416113	82.57998922940348	58.74879634775188	-9.214564699440313	-37.182946054160176	-9.214564699440288	-56.4715891180291	
1.460270750172358	-443.93879625918754	90.604729867575	-33.94648195587262	90.60472986757489	49.550277973199016	-14.103279112559328	-33.94648195587172	-14.103279112559381	-38.77166541445415	
1.510624913971405	-427.0391266836592	96.86822494290658	-31.03051054498566	96.86822494290644	40.57103147694113	-17.992004034813448	-31.03051054498483	-17.99200403481356	-19.352852991320063	
1.5609790777704518	-404.63840518982414	100.15922969570907	-27.955246856100473	100.15922969570894	34.53319281973762	-19.061221630785067	-27.95524685609972	-19.061221630785234	0.8758561322357501	
1.6113332415694985	-376.89462080722683	99.7086767814714	-24.38144215967603	99.70867678147121	34.259390117850316	-15.692732040785968	-24.381442159675352	-15.692732040786169	21.319969994760115	
1.6616874053685453	-344.1519652338472	95.062184155539	-20.135727024441316	95.0621841555388	42.24718541185479	-6.759000673868421	-20.135727024440726	-6.75900067386862	41.76847314978961	
1.712041569167592	-306.96797580704185	86.52134968512962	-15.148892671685724	86.52134968512942	59.88248190425893	8.109236431461674	-15.148892671685205	8.109236431461461	62.29184714464551	
1.762395732966639	-266.591592506115	75.13262615027196	-9.472289498747259	75.13262615027168	87.5990407891473	28.3703277348571	-9.472289498746813	28.37032773485694	83.1469570613498	
1.8127498967656859	-224.9143477197179	62.46152435078602	-3.2612448299743133	62.4615243507857	124.26969242077487	52.56710163006482	-3.261244829973938	52.5671016300647	104.57006792094967	
1.8631040605647327	-184.64862247228064	50.47119865433747	3.2665226559429925	50.47119865433713	167.79293485233336	78.4997113253613	3.2665226559433194	78.49971132536129	126.6134765264338	
1.9134582243637794	-148.68168524936613	40.9575421993012	9.889390540987877	40.95754219930079	215.1917052510899	103.58061131326235	9.889390540988149	103.5806113132624	148.9813566382027	
1.9638123881628264	-119.83686754910099	35.447478530419076	16.35383253353522	35.44747853041873	262.9864931012794	125.21701004253687	16.35383253353544	125.21701004253698	171.0591290508917	
2.014166551961873	-99.92323165098759	34.69718963495605	22.415416116721875	34.69718963495565	307.90806408246283	141.28748313971923	22.41541611672205	141.28748313971948	191.98599583226945	
2.0645207157609198	-89.34350597761242	38.888880522913354	27.82892123790901	38.88888052291298	347.08052653135513	150.48990320299345	27.82892123790915	150.4899032029938	210.8398524049544	
2.114874879559967	-86.50991239095714	47.550560695953585	32.32376440600159	47.55056069595323	378.41394693636653	152.591133400744	32.32376440600166	152.5911334007444	226.81710245672141	
2.165229043359014	-88.10345412947684	59.69129204450613	35.618679286023145	59.691292044505815	400.79844028211653	148.44608025427294	35.618679286023166	148.4460802542734	239.36586762297327	
2.2155832071580606	-89.28960763140287	74.25707146083644	37.39084465485647	74.25707146083619	414.04318439081857	139.73552807651373	37.39084465485642	139.7355280765143	248.1891656610008	
2.2659373709571073	-84.78697436292595	90.14300522180912	37.30608401052554	90.14300522180889	418.81738794259377	128.56544462914374	37.30608401052544	128.56544462914434	253.1382423728379	
2.316291534756154	-70.0349528344432	106.3784025213648	35.082784276457645	106.37840252136456	416.1847976593924	116.99464000912849	35.08278427645745	116.99464000912909	254.06268157097466	
2.366645698555201	-41.95555634789859	122.13084742799671	30.57385076546924	122.13084742799656	407.485141041902	106.6108684341923	30.57385076546898	106.61086843419292	250.62222007088278	
2.4169998623542477	0.08848933425096561	136.53968106960266	23.820609015445424	136.53968106960252	394.1194441172772	98.19949041686138	23.820609015445136	98.19949041686198	242.23912292676357	
2.4673540261532945	54.24528098459669	148.68683778440263	15.16800314591908	148.6868377844024	377.21870700886865	91.69796496105847	15.168003145918732	91.69796496105903	228.15449850577784	
2.5177081899523412	116.19718337390327	157.26552541009087	5.29684495355124	157.26552541009076	357.51951840604875	86.35926538193313	5.296844953550913	86.35926538193364	207.58685456217177	
2.5680623537513885	180.13894890998301	160.7489976142736	-4.773858409995043	160.74899761427343	335.6287161528196	81.06564425305363	-4.773858409995384	81.06564425305409	179.98678913639748	
2.6184165175504353	239.578735026385	157.44150927476215	-13.802053816630647	157.441509274762	311.82308639328926	74.68320065553976	-13.802053816630934	74.68320065554016	145.29191247598862	
2.668770681349482	288.29987002432875	145.79706641998388	-20.453709234470033	145.79706641998368	286.1523681772022	66.4005582067246	-20.453709234470274	66.40055820672491	104.05218691183649	
2.719124845148529	321.61024889467984	124.79716285578326	-23.560299917413474	124.79716285578311	258.6513604571425	55.93731426111218	-23.560299917413676	55.93731426111242	57.43203897978668	
2.7694790089475756	336.6963868786311	94.18043815589698	-22.37638337931498	94.18043815589678	229.3065746890755	43.55684370989086	-22.376383379315122	43.55684370989104	7.123127821625957	
2.8198331727466224	333.0434269894425	54.919102511750026	-16.836381613975597	54.919102511749884	198.1472103509523	29.960746491091378	-16.836381613975682	29.960746491091506	-44.80986806783522	
2.870187336545669	312.37328459296197	9.119005676483354	-7.683464682932055	9.119005676483127	165.36915155911913	16.07142575344084	-7.683464682932062	16.071425753440934	-96.07317544538961	
2.920541500344716	278.08944051609194	-39.967108624150455	3.510200997462306	-39.96710862415064	131.12143169291775	2.832036286030302	3.51020099746232	2.8320362860303234	-144.21697118123865	
2.9708956641437627	234.66435283386122	-88.31647718572304	14.547136925370891	-88.31647718572319	95.88139202617151	-8.985468719197733	14.547136925370953	-8.98546871919773	-186.68268055462693	
3.02124982794281	186.5265338369458	-131.5238289350921	22.917010920724408	-131.5238289350922	60.18866480093637	-18.908622443259418	22.917010920724486	-18.908622443259414	-220.8144024797001	
3.0716039917418567	137.6170833849352	-165.50543817205372	26.188988018135312	-165.50543817205386	24.8611176278734	-26.816124275196962	26.188988018135404	-26.816124275196984	-243.9608244511534	
3.1219581555409035	90.3168323667646	-186.923135063858	22.456000367273	-186.92313506385813	-9.165988368873144	-32.89779469769151	22.45600036727309	-32.89779469769151	-253.68780242207703	
3.1723123193399503	45.45067891609233	-193.73799182106194	10.636932628774261	-193.73799182106208	-40.8476304457339	-37.56792101034631	10.63693262877436	-37.56792101034631	-248.08285226797216	
3.222666483138997	2.2795441044836693	-185.45158703757636	-9.300513165992808	-185.45158703757647	-69.30073997029695	-41.41202255277582	-9.300513165992719	-41.41202255277584	-226.12893900588512	
3.273020646938044	-40.91929736397435	-163.17483168899287	-36.358331601683695	-163.17483168899304	-93.7410957516774	-45.04456944141017	-36.3583316016836	-45.04456944141018	-188.00337377328125	
3.3233748107370906	-86.36575688003771	-129.49669624299943	-68.6735699354733	-129.49669624299958	-114.063251366261	-48.977422033941984	-68.67356993547325	-48.97742203394199	-135.2399809042771	
3.3737289745361374	-135.66364329619876	-87.99104966669165	-103.79991563989302	-87.99104966669174	-130.3699528958548	-53.524468463201714	-103.79991563989297	-53.52446846320174	-70.74866832914483	
3.424083138335184	-189.4099606731139	-42.94816680347621	-139.03422507607885	-42.948166803476255	-143.39998465792797	-58.67918323221651	-139.03422507607883	-58.67918323221655	1.4386993958007537	
3.4744373021342314	-246.85513969041222	1.4946075851802867	-171.80745852463255	1.494607585180253	-154.2624601853152	-64.05987299847348	-171.80745852463252	-64.05987299847354	76.57509244068024	
3.524791465933278	-305.74972745256997	41.60625664126705	-200.0698088753263	41.606256641267024	-163.90198791196133	-68.90037426976151	-200.06980887532626	-68.90037426976157	149.6662695184769	
3.575145629732325	-363.08822068120764	74.40918580760516	-222.495061511546	74.40918580760513	-173.14100775013827	-72.07348139178073	-222.49506151154597	-72.07348139178079	215.96876512510164	
3.6254997935313718	-415.30216695158407	98.04837512695342	-238.63150242100284	98.0483751269534	-182.14313344902985	-72.2848738047824	-238.63150242100284	-72.28487380478249	271.3565029686781	
3.6758539573304185	-459.04904963414845	111.46364763815508	-248.88629120374637	111.4636476381551	-190.7089599886396	-68.24515768639768	-248.88629120374634	-68.24515768639776	312.59629371056315	
3.7262081211294653	-491.6163922768966	114.69720519843558	-254.40580905432302	114.69720519843563	-198.27488493313658	-58.8968248428858	-254.40580905432296	-58.89682484288588	337.57141616246753	
3.776562284928512	-511.16302074404007	108.3489033363714	-256.81612914398744	108.34890333637142	-203.77136689977414	-43.64065116343618	-256.8161291439874	-43.64065116343622	345.43532441220964	
3.826916448727559	-516.8948516661601	93.70982655597275	-257.8173342780624	93.70982655597281	-206.58453619547885	-22.40642621345814	-257.8173342780624	-22.406426213458175	336.59042279065426	
3.8772706125266057	-508.9470658335327	72.60628242734984	-258.8252092659404	72.6062824273499	-206.3966937674491	4.318475340263571	-258.8252092659403	4.318475340263564	312.6364859062803	
3.927624776325653	-488.2316655024272	46.98192898730361	-260.7234977221393	46.981928987303675	-203.45505965361556	35.51308920852529	-260.72349772213926	35.5130892085253	276.23102827332093	
3.9779789401246997	-456.40595959722805	19.287628105104634	-263.7538841130861	19.28762810510468	-198.7230116947725	69.74553340337647	-263.7538841130861	69.74553340337653	230.9290616380835	
4.028333103923746	-415.46068396919554	-8.142442192135597	-267.54652507349925	-8.142442192135547	-193.49836615111613	105.34009227457847	-267.5465250734992	105.34009227457852	180.86801847393528	
4.078687267722793	-367.6715267597109	-32.943770633978694	-271.4106269332443	-32.94377063397863	-188.70327124019008	140.49151848506548	-271.4106269332443	140.49151848506557	130.4621460493853	
4.1290414315218396	-315.29849022081265	-53.360696295259025	-274.6301097475845	-53.36069629525898	-185.15646709333865	173.39006301793242	-274.63010974758447	173.39006301793248	84.0448495141029	
4.179395595320887	-260.39306248895673	-68.1448719710441	-276.7550772875775	-68.14487197104403	-182.54537034320623	202.2657568279776	-276.7550772875775	202.26575682797775	45.52366848348014	
4.229749759119934	-204.35843623320005	-76.7136391764015	-277.82222095767344	-76.71363917640144	-179.74550397305438	225.45171910412637	-277.8222209576734	225.45171910412648	18.041767821778762	
4.280103922918981	-148.01771141907818	-79.3211201236216	-278.3888548473201	-79.32112012362154	-174.97292285084518	241.50726849415403	-278.3888548473201	241.5072684941542	3.741943579450467	
4.330458086718028	-91.43138930108341	-76.73458790195406	-279.34717211823136	-76.73458790195404	-166.01286210358478	249.31091919907442	-279.34717211823136	249.31091919907453	3.5863582204307463	
4.380812250517074	-34.31106706829883	-70.02656336741504	-281.66503694764566	-70.02656336741501	-150.92576608278193	248.19253190983727	-281.6650369476456	248.19253190983738	17.236935132978722	
4.431166414316121	23.735357710128376	-60.42879881765225	-286.09956685808004	-60.42879881765225	-128.57260844463676	238.10969705827475	-286.09956685808	238.10969705827486	43.06797711149896	
4.481520578115168	82.78973136452811	-48.96963141926285	-292.903573321532	-48.96963141926284	-98.88040986574998	219.75551473135783	-292.90357332153206	219.75551473135795	78.31123830701301	
4.531874741914215	142.17913164306796	-36.45661083444952	-301.7105897442552	-36.456610834449464	-62.92547156083731	194.54829952293298	-301.7105897442551	194.54829952293306	119.33124632092841	
4.5822289057132615	200.47806697707904	-23.419850073139298	-311.59225669435256	-23.419850073139262	-22.885860175944742	164.5223443784746	-311.5922566943526	164.5223443784747	162.04363338502546	
4.632583069512308	255.46909402988695	-10.271582808271695	-321.2353920294306	-10.271582808271646	18.656951678981684	132.1006949832422	-321.23539202943067	132.10069498324228	202.31879120793926	
4.682937233311355	304.6939560149794	2.550594353217477	-329.2507230721214	2.5505943532175976	59.40419165521173	99.78875869544186	-329.25072307212145	99.7887586954419	236.44264041650985	
4.733291397110402	345.580007041272	14.490181558890612	-334.50536211112734	14.490181558890669	97.36989301267391	69.79869157004933	-334.50536211112745	69.79869157004941	261.52802714717427	
4.783645560909449	376.22966856868106	24.988342881744565	-336.3022822219032	24.988342881744565	131.6157408343342	43.751828105952534	-336.3022822219034	43.75182810595258	275.71198573050464	
4.833999724708495	395.3916014795554	33.37321229190272	-334.4960880860195	33.37321229190272	161.98251055065728	22.52493830715064	-334.49608808601965	22.524938307150684	278.19659974363896	
4.884353888507542	402.6990290751948	39.08315581509413	-329.42897148050173	39.08315581509402	188.86186390409205	6.176927894425674	-329.4289714805019	6.176927894425674	269.1599257593931	
4.934708052306589	398.29324215681265	41.814903211657196	-321.70761316942674	41.81490321165711	212.81116728447856	-5.933125693814722	-321.70761316942696	-5.933125693814784	249.54327428199633	
4.985062216105636	382.6666203239294	41.5388743049582	-311.95490756423953	41.53887430495806	233.94425247040937	-14.897012915492315	-311.9549075642397	-14.897012915492446	220.76227291722284	
5.0354163799046825	356.19770459369965	38.65948699248851	-300.586656401833	38.6594869924883	251.72787627635634	-21.96233053218596	-300.58665640183324	-21.96233053218613	184.43060580050638	
5.08577054370373	319.07928073264054	33.81142185001627	-287.6718052556995	33.811421850016046	264.91660844461603	-28.2183106145727	-287.6718052556997	-28.218310614572935	142.20956439545736	
5.136124707502777	271.532470603564	27.812003042951687	-272.9645358180497	27.812003042951282	271.8368806277344	-34.409813481362626	-272.9645358180499	-34.40981348136292	95.74357964969133	
5.186478871301824	213.87373723338533	21.629902385305826	-256.1047603880627	21.6299023853053	270.69675847413	-40.84668971106384	-256.1047603880629	-40.84668971106417	46.709190247567804	
5.2368330351008705	146.9486967890228	15.99591823997028	-236.87131597287276	15.995918239969669	260.1378312967541	-47.42610175318515	-236.87131597287302	-47.42610175318553	-3.0683123145038564	
