# Stress in units of bar (10^5 Pa)
# z	Sxx	Sxy	Sxz	Syx	Syy	Syz	Szx	Szy	Szz
0.0	402.0286757381178	-12.856971017561591	-60.130924284758336	-12.856971017563012	133.64177990094402	409.7383017380721	-60.13092428475794	409.738301738073	-43.76515857503776	
0.05035416379904683	418.86226994161666	-35.15006190705655	-54.9014993809884	-35.15006190705806	172.75580339736382	362.70862061645306	-54.901499380987715	362.7086206164539	37.8011943720723	
0.10070832759809366	417.5058755931616	-78.01416150467445	-51.50640519441542	-78.01416150467588	185.65674650299388	296.8071295706512	-51.50640519441445	296.807129570652	127.00035574439488	
0.15106249139714048	436.99941585846244	-100.95791722749868	-50.72035829087523	-100.9579172275	230.12552335800805	220.26521247703317	-50.720358290874024	220.26521247703386	216.47365099888833	
0.20141665519618732	487.62684789508546	-82.415050236797	-49.770417922167404	-82.41505023679817	366.3015987482331	151.15772795204165	-49.77041792216613	151.15772795204228	301.4549296553541	
0.2517708189952341	553.6811257026774	-37.5063929378005	-44.92611309395618	-37.50639293780152	611.9096550817289	106.45055756892565	-44.92611309395504	106.45055756892624	375.09579975010047	
0.30212498279428096	612.0486257410755	-3.8437481163136127	-35.11592132537816	-3.8437481163146074	923.2847031724813	88.51643330623676	-35.11592132537725	88.51643330623736	426.80027496911475	
0.3524791465933278	644.741211965128	-8.672913069161183	-24.672188649244344	-8.672913069162234	1217.016924123699	84.52813003593334	-24.672188649243648	84.52813003593391	446.9134352174773	
0.40283331039237463	645.7500585487747	-42.41022663711243	-24.688862082796835	-42.41022663711354	1415.3246590050753	78.79320021517871	-24.68886208279636	78.79320021517921	434.4889360896846	
0.45318747419142147	620.8144870941887	-66.54971010816894	-48.4682721513615	-66.54971010816996	1486.1817346907424	63.96255157503827	-48.468272151361276	63.96255157503868	400.4556419422417	
0.5035416379904682	576.8869280982512	-50.98559492662528	-100.43899927348659	-50.98559492662608	1447.499091876673	41.69151165781505	-100.43899927348663	41.691511657815454	361.1814848633644	
0.5538958017895151	520.5270720899696	3.783662284981645	-169.27311559086024	3.7836622849811263	1334.2789254252716	17.165799599631878	-169.27311559086053	17.165799599632518	327.1585875345686	
0.6042499655885619	467.48751873737035	76.98706679746044	-233.9778358700398	76.98706679746013	1165.802735366817	-4.434879726796849	-233.97783587004025	-4.434879726795728	297.3649813676922	
0.6546041293876088	429.88145881619585	143.18894712308838	-276.9174168411165	143.18894712308804	943.6012936317354	-18.76261151267751	-276.917416841117	-18.76261151267591	263.908278788532	
0.7049582931866556	393.2612050723866	176.97515562494738	-291.9292988870909	176.97515562494675	676.2452536934086	-23.812888939541814	-291.9292988870915	-23.81288893954008	220.5640688123152	
0.7553124569857025	330.62095020867474	159.31107412444965	-283.4131073444265	159.31107412444862	401.104720997523	-22.26183725509793	-283.4131073444269	-22.261837255096534	166.32862389124426	
0.8056666207847493	234.59245700589997	88.53274098270698	-260.2020372670639	88.53274098270579	173.96445247947986	-21.978030336787455	-260.20203726706376	-21.97803033678671	103.57793372316418	
0.856020784583796	111.25433517315929	-14.700521564545795	-229.55750660059624	-14.700521564546733	25.341500257459984	-32.512220600683044	-229.5575066005958	-32.51222060068292	36.74688554986621	
0.9063749483828429	-46.56984611971512	-110.62538558022456	-194.9371069762897	-110.62538558022533	-69.68387904654361	-57.74930921001031	-194.93710697628896	-57.74930921001048	-27.0845031248555	
0.9567291121818897	-242.25768419307508	-152.88264091431347	-157.73055253418462	-152.8826409143142	-156.78357293799044	-89.98567819731943	-157.73055253418391	-89.98567819731952	-79.6037986560272	
1.0070832759809365	-434.18366868840326	-111.65645494855829	-119.09348927218466	-111.65645494855903	-233.59132719313922	-112.58051813011164	-119.0934892721841	-112.58051813011136	-114.95313193030432	
1.0574374397799835	-551.3704140960281	1.663295914779411	-79.74216783801445	1.6632959147788142	-241.7372788162188	-109.83760925416463	-79.74216783801393	-109.83760925416397	-132.22570288307782	
1.1077916035790303	-565.6719642302887	129.06929245658435	-41.13135769365706	129.0692924565841	-137.19669567443867	-74.92464213215989	-41.13135769365629	-74.92464213215894	-136.09622381748338	
1.158145767378077	-525.5604216252265	197.46420726865034	-9.279688176672932	197.46420726865048	52.42797709372776	-12.225339878336351	-9.279688176671803	-12.225339878335342	-136.22704536960148	
1.2084999311771238	-504.76935176198094	171.82321097703772	5.673706437236378	171.823210977038	243.6403547594179	61.67698784149387	5.673706437237762	61.67698784149469	-142.94110136816917	
1.2588540949761706	-533.0939815942647	78.93779496233329	-1.2273116896621108	78.93779496233343	350.255097234124	119.93876584812011	-1.2273116896606737	119.93876584812055	-159.06847369332797	
1.3092082587752176	-578.2967411847108	-21.775128630386217	-21.635817500636513	-21.775128630386302	328.5897620795853	137.41533682057113	-21.63581750063518	137.41533682057116	-175.36292938432922	
1.3595624225742644	-582.2098950106723	-80.97452739773699	-39.943603260751644	-80.97452739773723	208.18758100745632	107.48458569615381	-39.94360326075051	107.48458569615369	-175.24435239711497	
1.4099165863733112	-517.8427194299802	-73.42407774996266	-47.849115389496134	-73.42407774996295	79.38847488736985	46.01101391888289	-47.84911538949511	46.01101391888276	-144.19470275132124	
1.460270750172358	-423.24695925233243	5.5287670701565474	-48.8183052868095	5.528767070156192	15.885867093631248	-22.320279903664588	-48.81830528680847	-22.320279903664673	-77.07690691634177	
1.510624913971405	-368.3440365226747	134.64189567368885	-48.00729560097683	134.64189567368848	7.823368740793761	-79.03172461049965	-48.00729560097574	-79.03172461049982	15.411647133400152	
1.5609790777704518	-382.9524633011593	262.61829360667076	-43.81305187477788	262.6182936066706	-8.069304163424533	-116.19623450745362	-43.81305187477678	-116.19623450745402	102.848581270175	
1.6113332415694985	-433.38590111495614	330.0727557314155	-33.318343581334524	330.07275573141555	-68.57460821312435	-134.63730909252658	-33.31834358133364	-134.63730909252718	146.30764106086013	
1.6616874053685453	-465.4345882490808	307.02125940380347	-21.47046551683025	307.02125940380375	-154.14343031175207	-140.19029226177784	-21.470465516829762	-140.19029226177852	126.0277774697327	
1.712041569167592	-450.4533129959462	211.06937468193607	-18.149388960718667	211.0693746819365	-217.65635430478622	-135.40313927963365	-18.149388960718582	-135.40313927963427	60.703544044208044	
1.762395732966639	-397.0375697832862	91.06590695044176	-25.359914874582287	91.06590695044207	-214.51051516219985	-112.0750771963917	-25.359914874582422	-112.0750771963922	-3.4642912642949	
1.8127498967656859	-332.9006628875243	-6.388103086679195	-30.800390258516654	-6.388103086679209	-115.57595815781576	-56.259202334169174	-30.80039025851671	-56.2592023341695	-23.508328634715305	
1.8631040605647327	-264.0364913374264	-62.435273738413144	-17.679808595453	-62.43527373841363	74.58385133323156	36.718404266766306	-17.67980859545282	36.71840426676619	15.860230372304894	
1.9134582243637794	-155.5089272831696	-87.19126755311387	17.22513814944712	-87.19126755311484	297.2708099986108	154.28836967783542	17.225138149447503	154.28836967783548	97.19839096078009	
1.9638123881628264	28.948047618252417	-97.69369166046926	55.56158331426372	-97.69369166047053	462.2648345019834	272.97607581183024	55.56158331426412	272.9760758118304	185.17649238569305	
2.014166551961873	265.04038339597594	-97.6875834081926	69.97239996777598	-97.6875834081938	517.9142815520171	367.4904882308905	69.9723999677763	367.4904882308907	254.52148517962783	
2.0645207157609198	447.4960117944496	-76.31958488519813	48.52274701988702	-76.31958488519908	500.49099275473844	413.4100384905903	48.522747019887234	413.4100384905905	307.6840476585357	
2.114874879559967	436.35849039330645	-20.909856297932617	9.416111707100306	-20.909856297933132	493.691597512215	391.2627330171606	9.416111707100491	391.26273301716094	357.0456687116417	
2.165229043359014	163.8882894959699	66.65370651997725	-9.426794402562873	66.65370651997716	535.2913173380844	298.4520271286052	-9.426794402562656	298.45202712860583	388.277875249953	
2.2155832071580606	-266.73894835260273	160.4477274323113	18.332620731096696	160.44772743231152	579.2129643186156	157.76600269991548	18.332620731096924	157.76600269991633	360.2171837244933	
2.2659373709571073	-621.9743139891963	218.14777116678835	78.87950924996865	218.14777116678886	553.510203072002	11.24612547885358	78.87950924996876	11.246125478854642	258.8861930805547	
2.316291534756154	-721.8144163832578	207.56799945683963	122.55657794135675	207.56799945683997	449.12366245729527	-95.07609729411769	122.55657794135665	-95.07609729411662	141.31679524155425	
2.366645698555201	-575.4926795718361	132.80282648520532	108.93282446740837	132.80282648520551	345.7957099880114	-125.62399045343619	108.93282446740808	-125.62399045343525	100.46411445754724	
2.4169998623542477	-324.99062109372244	41.78373383470509	52.27295433220017	41.78373383470506	330.86765615463355	-68.70006020700802	52.27295433219964	-68.70006020700724	178.6560375433693	
2.4673540261532945	-87.31734914967149	4.938579241942136	9.503926762551245	4.938579241941966	392.03003348924096	51.53817604111787	9.503926762550591	51.53817604111853	325.8209563334092	
2.5177081899523412	116.76297687794435	65.96856296235103	15.131427903303347	65.96856296235097	425.86126947678395	178.03770906917717	15.131427903302537	178.03770906917782	445.5085345557843	
2.5680623537513885	310.9300675167468	201.12009732134499	41.23186625092312	201.1200973213447	371.0909233893052	250.18858498160495	41.23186625092232	250.18858498160557	470.6942526930489	
2.6184165175504353	499.49931501900215	334.0419075637196	32.92744115226144	334.0419075637194	289.6530751897107	242.88510455612516	32.927441152260826	242.88510455612573	392.02627428997755	
2.668770681349482	658.7602074908516	396.78356157138967	-29.494303329228757	396.78356157138944	277.4041808367131	177.64639770788273	-29.49430332922921	177.64639770788312	235.96742630709198	
2.719124845148529	751.4742278763265	375.08650806302376	-117.2387623032243	375.08650806302353	327.12413195393685	94.5407558208129	-117.23876230322452	94.54075582081316	44.97164163246719	
2.7694790089475756	750.0112999111886	301.6081499231258	-187.77160359722586	301.60814992312555	335.9130875488837	20.41926899760266	-187.77160359722592	20.41926899760274	-123.59262990992366	
2.8198331727466224	668.3005303339708	214.57604888496968	-212.21481041985473	214.57604888496945	241.61540813452262	-32.94592193834508	-212.21481041985462	-32.94592193834518	-212.45025447725692	
2.870187336545669	556.8026021675474	123.45047736065058	-176.78052513502806	123.45047736065041	104.73797586657138	-56.790962164618364	-176.7805251350279	-56.7909621646186	-202.5779183831413	
2.920541500344716	441.16000287443933	10.640195280154671	-82.97562206214869	10.64019528015453	36.71794941717745	-50.30252867532934	-82.97562206214849	-50.30252867532965	-136.16194757098805	
2.9708956641437627	286.9516373794692	-133.82132104202987	46.28455997303108	-133.82132104203	75.39564662124992	-32.26879518392973	46.28455997303128	-32.26879518393002	-94.89268868776446	
3.02124982794281	60.07730039802718	-288.0302695652756	171.75821275965788	-288.0302695652756	150.1862542212794	-29.063010898799973	171.75821275965808	-29.06301089880016	-147.484213511892	
3.0716039917418567	-189.02436207074658	-416.18822919671936	255.98175769324297	-416.18822919671936	158.13026497209057	-46.72930310769116	255.9817576932432	-46.729303107691216	-302.5764068042143	
3.1219581555409035	-334.07642317429287	-498.2644460675246	276.92169627921476	-498.26444606752455	60.50417090783682	-65.93600559083649	276.921696279215	-65.93600559083644	-499.210689696588	
3.1723123193399503	-280.03115116792355	-530.7012254708054	230.1247101090164	-530.7012254708055	-92.73180317768475	-67.60981762338749	230.12471010901652	-67.60981762338739	-644.1075870340777	
3.222666483138997	-59.831597542828064	-509.56821750635174	129.4100915348517	-509.5682175063519	-220.8668684233019	-53.12077663263517	129.41009153485174	-53.12077663263506	-668.9824204748006	
3.273020646938044	181.15796604063422	-427.38204446073996	8.435904621158578	-427.3820444607402	-278.6948549961553	-35.620019046871704	8.435904621158606	-35.62001904687156	-564.0492720661832	
3.3233748107370906	299.2229274377538	-283.2370945236295	-91.15384706485052	-283.2370945236297	-270.0083117572185	-23.126235998183525	-91.15384706485048	-23.126235998183425	-369.47897191511674	
3.3737289745361374	248.45247006434948	-93.92308981490226	-147.24401521732995	-93.92308981490251	-223.6909299374859	-16.23875423998591	-147.2440152173299	-16.238754239985873	-144.47846852636224	
3.424083138335184	75.65282332974826	98.20679528997529	-174.88199417061008	98.20679528997515	-170.74135171217628	-13.746738390676319	-174.88199417061003	-13.746738390676336	58.32522249867448	
3.4744373021342314	-148.50219493100423	234.94858279320923	-212.33707942292352	234.9485827932092	-126.99867914092255	-16.39435407057503	-212.33707942292352	-16.39435407057509	207.54825685971667	
3.524791465933278	-375.8344071131138	279.0270916399319	-286.10858490210546	279.0270916399319	-89.30888061668085	-30.42353116886578	-286.1085849021056	-30.423531168865868	302.66854249518656	
3.575145629732325	-575.1551227384244	247.91192249245026	-383.5546780371119	247.91192249245034	-57.793815158533135	-65.59386965504865	-383.5546780371119	-65.59386965504878	370.52200233446706	
3.6254997935313718	-711.5848556499643	199.48277544582376	-455.24048643054005	199.4827754458238	-54.671469356949245	-121.96359043302172	-455.2404864305401	-121.96359043302186	440.55698270543843	
3.6758539573304185	-754.5056439122149	179.77912719612885	-449.58658695443324	179.7791271961289	-105.07124686423315	-180.88918528142588	-449.5865869544332	-180.88918528142602	519.5053752981767	
3.7262081211294653	-709.6021356680649	190.96103575829858	-355.56921026473924	190.96103575829866	-204.81441019052244	-216.01599571353228	-355.56921026473924	-216.01599571353242	590.8463145247515	
3.776562284928512	-628.8169545456118	205.92086913396105	-216.87705266659682	205.92086913396105	-318.15305086829386	-211.05163596009535	-216.8770526665968	-211.05163596009544	630.8579940658001	
3.826916448727559	-577.6866988475296	200.28331799748128	-103.3330665559786	200.28331799748136	-401.3849342051732	-163.59272299264978	-103.33306655597855	-163.5927229926499	619.9321896831623	
3.8772706125266057	-589.2418212799629	169.02584878538602	-64.0037096527875	169.02584878538607	-421.6492545898233	-79.44199474144773	-64.0037096527875	-79.44199474144783	548.80609411615	
3.927624776325653	-639.9894759290253	122.05194763544883	-102.2471884729446	122.05194763544891	-365.74501416725695	25.934632433099964	-102.24718847294463	25.934632433099964	425.97242628391507	
3.9779789401246997	-666.5134292015447	66.43748076132572	-188.98273901786015	66.43748076132583	-248.15935123795222	123.74029474623293	-188.98273901786018	123.74029474623302	278.0852912679909	
4.028333103923746	-614.4414876816448	-7.340264902491917	-291.0686173634939	-7.340264902491789	-109.8690003379422	184.05980928162413	-291.06861736349396	184.0598092816243	137.12022033167406	
4.078687267722793	-478.9873008344866	-112.98690846344637	-382.08499647262715	-112.98690846344627	1.4608849579794594	198.7397598223758	-382.0849964726272	198.739759822376	24.542311630272284	
4.1290414315218396	-302.8864323576828	-235.6009616443312	-435.74696011388653	-235.6009616443311	51.84534932415218	188.66475393935744	-435.74696011388653	188.66475393935764	-55.589030544724	
4.179395595320887	-142.51152835125225	-319.6132333671562	-429.31263102701655	-319.6132333671561	22.28859114964075	188.68929130033771	-429.3126310270165	188.6892913003379	-113.5318813889597	
4.229749759119934	-33.54330363636183	-306.3013522020518	-364.0891460555014	-306.3013522020519	-86.80424212204193	227.6386698957494	-364.0891460555012	227.63866989574956	-163.6972270729047	
4.280103922918981	20.023396329239574	-191.9961270498644	-273.3773662953458	-191.99612704986444	-238.96342170133323	312.1590659637196	-273.37736629534567	312.15906596371974	-211.25282651676633	
4.330458086718028	24.44705188751182	-43.83656490826047	-198.15106847165845	-43.83656490826055	-373.0680606929623	414.7966619788447	-198.1510684716583	414.7966619788449	-244.93321508526566	
4.380812250517074	-26.06598569146321	52.09074250173306	-157.03854111412966	52.090742501732905	-448.978430636692	480.96873860844295	-157.03854111412957	480.9687386084431	-243.4344774955934	
4.431166414316121	-123.43559607134344	60.492744148058165	-146.83926811708372	60.492744148057994	-458.06473612512474	465.677001643823	-146.83926811708366	465.67700164382325	-188.71656063225836	
4.481520578115168	-201.0857235827176	11.398314345583742	-164.72859159943596	11.3983143455836	-385.831413542147	372.9548647563176	-164.72859159943587	372.95486475631776	-74.78054821877714	
4.531874741914215	-158.06780042167452	-45.909177632730184	-215.66651447552638	-45.90917763273025	-214.1242878443304	254.5913184151724	-215.66651447552636	254.59131841517257	87.08621510983964	
4.5822289057132615	49.26893711459557	-86.9815347579677	-297.38763521057905	-86.98153475796778	22.259119629285465	163.95018679428216	-297.387635210579	163.95018679428222	262.68988591624014	
4.632583069512308	355.97082380726	-108.74726587645219	-389.252213989062	-108.74726587645225	231.042980452723	110.46238862459641	-389.25221398906206	110.46238862459639	402.6097284741131	
4.682937233311355	635.8444007029709	-98.55525897264397	-462.0108435370154	-98.55525897264391	340.9201718176824	59.72889339228249	-462.0108435370154	59.72889339228243	473.7082660989243	
4.733291397110402	783.8916650216715	-32.09284718160865	-495.44971366966786	-32.09284718160848	350.7862557277203	-22.75754277839494	-495.4497136696678	-22.757542778394864	486.0190512999219	
4.783645560909449	760.2556136576	84.9418776958037	-484.81345041003465	84.94187769580404	294.2959791430955	-126.32757022908942	-484.81345041003476	-126.32757022908919	476.0151564210631	
4.833999724708495	601.8419762299534	187.31541780827698	-435.45471923238443	187.3154178082774	200.47098143113448	-193.3461178020038	-435.4547192323844	-193.34611780200342	460.72128351756163	
4.884353888507542	411.6272602733526	197.277767153397	-358.0011569074984	197.2777671533974	101.0351483659835	-168.81451263656336	-358.00115690749834	-168.81451263656305	421.174445608666	
4.934708052306589	302.9958538132546	115.37210032987718	-270.48435003925607	115.37210032987713	35.95782338028823	-56.806154923068895	-270.4843500392561	-56.80615492306871	337.28537406118744	
4.985062216105636	318.8698227757219	31.665522604678074	-200.72549348349295	31.665522604677562	39.186418079722046	73.68336722940882	-200.72549348349312	73.6833672294088	227.50851276388698	
5.0354163799046825	401.8669141515049	21.07671465756013	-177.57419645435476	21.076714657559364	126.87427740063424	140.9713821407252	-177.57419645435516	140.97138214072498	141.56003308686388	
5.08577054370373	453.16529836901805	57.51276264740052	-212.13953821254495	57.512762647399654	282.7918157333032	111.01621493403911	-212.1395382125455	111.01621493403869	114.12555493508336	
5.136124707502777	427.66725739503977	61.40446969916309	-287.804424768174	61.40446969916239	455.64217839255616	14.487495720133207	-287.80442476817444	14.48749572013261	130.64152787311082	
5.186478871301824	368.6178309682117	5.560548096632061	-370.4577477788853	5.560548096631749	581.4453976369747	-84.35615167801825	-370.4577477788855	-84.35615167801896	139.40809246034974	
5.2368330351008705	339.170135047497	-60.4444749648608	-423.5173969803942	-60.44447496486063	609.5753324160996	-134.26066971246635	-423.517396980394	-134.26066971246712	96.31057538831908	
