# Stress in units of bar (10^5 Pa)
# z	Sxx	Sxy	Sxz	Syx	Syy	Syz	Szx	Szy	Szz
0.0	297.9766594730882	113.38407784783924	-104.51595763290807	113.38407784783978	204.18541568889145	188.36947154864035	-104.51595763290858	188.36947154863992	177.4562564155226	
0.05032175121695348	291.8148182372099	136.83265773751515	-120.11577581359558	136.83265773751575	178.42437894075138	177.65718809235133	-120.11577581359617	177.657188092351	183.24277828495224	
0.10064350243390696	281.5649643745365	158.39206801985307	-135.34130528432084	158.39206801985372	149.96976451336064	170.43349178281346	-135.3413052843215	170.4334917828133	191.00123483089027	
0.15096525365086044	268.7926836677915	178.3148672410393	-149.17222241325632	178.31486724104008	120.91689425967408	166.87858872741273	-149.172222413257	166.87858872741268	202.73347028284832	
0.20128700486781392	254.91558970662854	196.6918202892225	-160.71207281998363	196.6918202892234	93.03235989510276	166.79622760098187	-160.71207281998431	166.79622760098192	219.62900763467087	
0.2516087560847674	240.95654958265055	213.2497717485664	-169.28056892343756	213.24977174856735	67.83519361145257	169.55455037503793	-169.28056892343818	169.55455037503805	241.91951130081404	
0.3019305073017209	227.80401346271032	227.57397420158838	-174.4612333478242	227.57397420158952	46.26940497651253	174.14295459623284	-174.46123334782476	174.142954596233	268.9063464935112	
0.35225225851867437	216.05139655675248	238.98468564201147	-176.11090815511483	238.98468564201278	28.849753012524893	179.25184402865	-176.11090815511534	179.25184402865017	299.1368549870696	
0.40257400973562785	206.0844907086908	246.7896289367854	-174.31425396822362	246.78962893678687	15.34152593322915	183.4271828095361	-174.31425396822408	183.4271828095363	330.67696365555787	
0.4528957609525813	198.14636089920958	250.35662850456407	-169.33318509856375	250.35662850456572	5.049494960493888	185.24077246736334	-169.33318509856406	185.2407724673635	361.38978367426716	
0.5032175121695348	192.02384965345436	249.18838931864173	-161.52088839953666	249.1883893186435	-3.218698883991337	183.49765068098307	-161.52088839953686	183.49765068098324	389.2732674586212	
0.5535392633864883	187.1821612070815	243.13094747230804	-151.27234056327566	243.13094747230977	-11.172222631362132	177.4314519789281	-151.2723405632758	177.43145197892824	412.6854426576957	
0.6038610146034418	182.3654207818547	232.19697115729383	-138.96449434597451	232.1969711572956	-20.89384110870361	166.81527733794002	-138.96449434597451	166.81527733794016	430.49323963962894	
0.6541827658203953	175.82589444011984	216.74544793283337	-124.94083448597789	216.7454479328352	-34.71110910994054	152.05324530419398	-124.94083448597785	152.0532453041941	442.13731806889393	
0.7045045170373487	165.51959635946616	197.17482494004364	-109.51349784782207	197.17482494004523	-55.026707972446374	134.13381137012016	-109.51349784782197	134.13381137012027	447.61998955597556	
0.7548262682543022	149.6254877427232	174.12847704189807	-93.02893430867313	174.1284770418996	-83.86055747204338	114.52347341570527	-93.02893430867294	114.5234734157054	447.4170655772081	
0.8051480194712557	126.92368096774202	148.2182132121766	-75.87365947252587	148.21821321217806	-122.55293850394025	94.96694682085662	-75.8736594725256	94.96694682085682	442.3244059074923	
0.8554697706882092	97.46952601654749	120.13375514033214	-58.514098610574706	120.13375514033353	-171.4207247610508	77.29869085813009	-58.514098610574415	77.29869085813034	433.34298352714615	
0.9057915219051627	62.81313609567573	90.70719482674534	-41.52314213469384	90.70719482674666	-229.0282281389718	63.158801049136116	-41.523142134693465	63.158801049136436	421.5676648012093	
0.9561132731221161	25.927653563741373	60.75723035807506	-25.532543805514475	60.757230358076335	-292.61171658584493	53.779123206514505	-25.53254380551404	53.77912320651485	408.13809444471246	
1.0064350243390696	-9.161883512586073	31.271655915258236	-11.187821737544406	31.27165591525946	-358.0471778449584	49.86670013924862	-11.187821737543906	49.866700139249	394.19701161460074	
1.056756775556023	-38.045733510702135	3.3721184874841796	0.8686078466809075	3.3721184874853876	-420.09978222480447	51.530106361547816	0.8686078466814866	51.53010636154823	380.8040448603633	
1.1070785267729766	-56.685049256611435	-21.702287898629145	10.074074977318437	-21.702287898628004	-473.5291741597472	58.31329354767747	10.074074977319077	58.31329354767788	368.92969916793857	
1.1574002779899302	-62.34863133792494	-42.79707414079435	16.0079057924929	-42.79707414079331	-513.5907775242482	69.37006095092521	16.007905792493624	69.37006095092559	359.3614700087226	
1.2077220292068835	-53.74136780960235	-58.72191182852714	18.461511229611634	-58.72191182852613	-536.9261303655687	83.57925798598136	18.461511229612427	83.57925798598168	352.654780562952	
1.258043780423837	-31.410054974126645	-68.54993629894412	17.481149795588827	-68.54993629894322	-541.872419355598	99.73946289733004	17.48114979558968	99.7394628973303	349.0358772158303	
1.3083655316407905	2.5913855613318972	-71.5169246278464	13.457541310233186	-71.51692462784564	-528.7344028638456	116.75210500676664	13.457541310234085	116.75210500676687	348.40399311594683	
1.358687282857744	45.392340122579625	-67.27583809631616	7.224911580945115	-67.27583809631551	-499.3483730885121	133.68825696003645	7.224911580946067	133.68825696003665	350.34982996442534	
1.4090090340746975	93.68330787575377	-55.60102674642353	0.02478565910535835	-55.60102674642293	-456.56370281433004	149.81680618004958	0.024785659106346003	149.81680618004972	354.21292828111274	
1.4593307852916508	144.10253813164985	-36.65063921631061	-6.525133248711242	-36.65063921631008	-403.84763210605183	164.61268694792483	-6.525133248710262	164.61268694792497	359.25305382717204	
1.5096525365086044	194.0233773660235	-10.685420507496815	-10.542293255355801	-10.685420507496389	-344.2087790800564	177.6344485677915	-10.542293255354798	177.63444856779162	364.8180034462376	
1.559974287725558	241.2089859965557	21.817620190316248	-10.127993285205513	21.817620190316774	-279.9770386382639	188.50807320987008	-10.127993285204514	188.50807320987025	370.44506192187504	
1.6102960389425114	283.8076474414297	60.28691588033061	-3.6374171483201394	60.28691588033117	-212.60422712499263	196.8986751815545	-3.6374171483191233	196.89867518155467	375.93354255309936	
1.6606177901594648	320.6070262030423	103.82661282943491	10.095077863507619	103.82661282943552	-142.59693155423477	202.5372152437171	10.095077863508607	202.53721524371724	381.31573881616913	
1.7109395413764183	350.5127519987715	151.17572551038813	31.53387743192488	151.17572551038884	-70.10795275799344	205.3145177321016	31.533877431925845	205.3145177321018	386.6771064382082	
1.761261292593372	372.81545619232077	200.5661520568856	60.32277709322622	200.56615205688632	4.682119299454627	205.35802598210893	60.3227770932272	205.35802598210913	391.96840964700806	
1.8115830438103253	387.3400803486833	249.44124332762155	95.32043169506801	249.44124332762226	81.1415879477666	203.14231169371652	95.32043169506899	203.1423116937167	396.78078836935623	
1.8619047950272787	394.44976613198673	294.717271397814	134.6613844825149	294.7172713978147	157.67692500226667	199.44951851315525	134.66138448251587	199.4495185131554	400.1258894296681	
1.9122265462442323	395.1156199691024	332.76195147426847	175.9020911504153	332.76195147426927	231.66480688287572	195.2915921318331	175.90209115041625	195.29159213183326	400.40622282147626	
1.9625482974611859	390.8866978272068	359.917321697707	216.2319904152916	359.9173216977077	299.6792859390166	191.76855975335872	216.23199041529253	191.7685597533588	395.5729027309444	
2.0128700486781392	383.7487071192341	373.0675656030238	252.64739350880058	373.0675656030244	358.0372587510568	189.79970743105667	252.64739350880149	189.7997074310568	383.4532017200796	
2.0631917998950926	375.5246629839796	370.13585977400334	282.2098238831915	370.13585977400373	403.36913871709237	189.90148321823642	282.2098238831923	189.90148321823656	362.2367829712654	
2.113513551112046	367.91563893323496	350.5256319468495	302.3401537967526	350.5256319468499	433.17273868557743	192.0627823752413	302.3401537967534	192.06278237524148	330.95560079426656	
2.163835302329	362.0743093648968	315.4883939711352	311.0978423882128	315.48839397113545	446.56249860773227	195.7098883136938	311.09784238821345	195.7098883136939	289.9065386727274	
2.214157053545953	358.55057016207695	267.8437784438378	307.43518045860174	267.84377844383783	443.9950243779056	199.79005278530073	307.43518045860225	199.79005278530093	240.84695383959797	
2.2644788047629065	357.2607464660973	211.59100008363464	291.40143921714355	211.59100008363453	427.73323038459006	202.98235823888177	291.401439217144	202.98235823888194	186.8658590826043	
2.3148005559798603	357.6862887192071	151.3261352776074	264.16686161485916	151.32613527760716	400.90262325307407	203.9504063257552	264.1668616148595	203.95040632575538	132.01171917443565	
2.3651223071968137	358.8359495121741	91.40605322979721	227.88900040269857	91.40605322979683	367.07944047564047	201.5350666768283	227.88900040269874	201.5350666768285	80.70508887226933	
2.415444058413767	359.66994175846287	35.51522987547233	185.41131368982698	35.51522987547173	329.5897547563016	194.97492977718142	185.41131368982704	194.97492977718161	37.10601487734687	
2.4657658096307205	358.9555134858965	-13.748433804624497	139.88986543720011	-13.748433804625066	291.08115765847515	184.02600893400995	139.88986543720006	184.02600893401012	4.521390725011273	
2.516087560847674	355.5322539356316	-55.02719226298162	94.44717842776427	-55.02719226298224	253.1156222203597	169.00592652667075	94.44717842776413	169.0059265266709	-14.95868768490751	
2.5664093120646276	348.58804951380597	-87.87397743199156	51.84753958924186	-87.87397743199223	216.18753703647815	150.73382114232368	51.847539589241684	150.7338211423238	-20.71049921303824	
2.616731063281581	337.5824752492264	-112.66539763471802	14.329368558982377	-112.66539763471866	180.0447575432638	130.48783946832629	14.329368558982157	130.48783946832634	-13.510027805341748	
2.6670528144985344	322.6028982133328	-130.0881721572705	-16.45069791134402	-130.08817215727112	144.00538885829116	109.84350277832164	-16.450697911344207	109.84350277832166	4.621778768135956	
2.717374565715488	304.19181705842743	-141.00093763850728	-39.36797271539894	-141.00093763850782	107.31871934968451	90.47086799489519	-39.36797271539913	90.47086799489519	30.686634777697844	
2.7676963169324416	283.3588475404166	-146.23979933519928	-53.78899115594443	-146.2397993351998	69.41787898425288	73.92878610688312	-53.78899115594458	73.92878610688308	60.99566252885475	
2.818018068149395	261.2600941223661	-146.58846394028552	-59.5009535059658	-146.58846394028592	30.139798664307875	61.47951410239334	-59.500953505965924	61.47951410239326	91.533344575433	
2.8683398193663483	238.8760122754084	-142.78604591286762	-56.732473534979974	-142.78604591286796	-10.3440910065722	53.913747269429706	-56.73247353498004	53.913747269429535	118.34793304363347	
2.9186615705833017	216.76113362809545	-135.64265459921316	-46.12280874605395	-135.64265459921344	-51.478641923433635	51.46445400906417	-46.12280874605398	51.464454009063985	137.98771054914118	
2.9689833218002555	194.65313426316706	-125.94115852585045	-28.71020269127843	-125.94115852585065	-92.75409300137268	53.87775461208636	-28.710202691278397	53.87775461208617	147.92809296403743	
3.019305073017209	171.7521393416277	-114.51680901912137	-5.909967587163306	-114.51680901912147	-133.22194774946507	60.54831346525012	-5.909967587163228	60.548313465249905	146.95893788659976	
3.069626824234162	146.69735169539558	-102.15989504659763	20.656928683639467	-102.15989504659767	-171.95956101547307	70.64059645608904	20.656928683639563	70.64059645608883	135.4687805271288	
3.119948575451116	118.1088041670869	-89.62884923297742	49.36114035364203	-89.6288492329774	-207.89975160568568	83.28005878105839	49.361140353642156	83.28005878105816	115.49191594732734	
3.1702703266680694	84.64464763313846	-77.50002961039003	78.7289964991797	-77.50002961039003	-239.62352238631186	97.63862323721129	78.72899649917986	97.63862323721109	90.41297101944741	
3.2205920778850228	45.88531179582874	-66.26362024437749	107.60027580229702	-66.26362024437744	-265.71978943074777	112.91132145606932	107.60027580229716	112.91132145606915	64.4486349704078	
3.270913829101976	1.9890099321392398	-56.32852383476046	135.2523163885986	-56.328523834760375	-284.42205508879067	128.31594592125268	135.25231638859876	128.3159459212525	41.959810863705634	
3.3212355803189295	-46.063016445429334	-47.96109184715769	161.38688610205224	-47.961091847157604	-294.18708006157283	142.99547902577314	161.38688610205242	142.99547902577297	26.746836475077174	
3.3715573315358833	-96.5000268947483	-41.42601721322511	186.0140289109538	-41.42601721322501	-293.34095316883315	155.94072741578512	186.01402891095395	155.940727415785	21.39862988738132	
3.4218790827528367	-147.61559823908115	-36.75360301076307	209.30259973327594	-36.75360301076301	-280.68732811871917	166.0313329680778	209.30259973327608	166.03133296807772	27.002687044496312	
3.47220083396979	-197.54767629785138	-33.87258003469046	231.4653474680828	-33.872580034690415	-255.30570886544382	172.1224503315762	231.4653474680829	172.12245033157615	43.116179055432596	
3.522522585186744	-244.65689253152965	-32.38694126892268	252.56325270924862	-32.38694126892263	-216.4995831684063	173.1917792131916	252.56325270924876	173.19177921319155	68.02377542958922	
3.5728443364036973	-287.96094023698214	-31.65582139043427	272.4279290195545	-31.65582139043424	-164.29422002514139	168.599402684846	272.42792901955454	168.59940268484598	99.24336094492708	
3.6231660876206506	-326.31935438542524	-30.781924771673722	290.6438039240578	-30.781924771673694	-99.04080086560208	158.22360893196497	290.6438039240578	158.22360893196497	134.04086166206685	
3.673487838837604	-359.0614972406727	-28.784692852564383	306.5352927704356	-28.78469285256437	-21.99897744645488	142.60743197008057	306.5352927704357	142.6074319700806	169.89540297032693	
3.7238095900545574	-385.30927015344867	-24.858373771699867	319.19334969591677	-24.85837377169988	64.50696110961337	122.98051833832073	319.1933496959169	122.98051833832076	204.81465950906457	
3.774131341271511	-403.97468104223316	-18.59308974379094	327.54627011092333	-18.593089743790948	157.16015248624166	101.16403890588782	327.5462701109234	101.16403890588784	237.4803208724548	
3.8244530924884645	-414.05762228293725	-10.113140757957243	330.3812305297788	-10.113140757957254	251.04638165415645	79.36631501459892	330.3812305297788	79.36631501459892	267.18194936581693	
3.874774843705418	-414.46577461167846	-0.19568062940838615	326.38261261098023	-0.19568062940841457	340.22868893926255	59.87527438321823	326.3826126109801	59.87527438321827	293.77879420692426	
3.9250965949223717	-404.3362210212891	9.718536299423533	314.2536086824923	9.718536299423477	418.16718953502584	44.686943856148545	314.2536086824923	44.68694385614857	317.59484340568616	
3.975418346139325	-383.47165285958886	17.88900695161108	292.8902659265686	17.88900695161105	478.55485492692344	35.1504204650688	292.89026592656853	35.150420465068805	339.3114799528493	
4.0257400973562785	-352.5260252640132	22.42369897421659	261.5476606169561	22.423698974216535	516.4731107968393	31.670871085932802	261.54766061695597	31.670871085932852	359.8807642090809	
4.076061848573232	-313.0108391143138	21.635193714753022	220.10896304197453	21.635193714752948	528.977652453453	33.61226820669932	220.10896304197445	33.612268206699355	380.4338412939941	
4.126383599790185	-267.33895988048226	14.379138242090882	169.24627447596453	14.37913824209079	516.2147189093741	39.31785945435996	169.24627447596447	39.31785945435996	402.04860513093433	
4.176705351007139	-218.529372970736	0.28085874251897547	110.50700164214786	0.28085874251885823	481.1034550845247	46.306528640742556	110.50700164214777	46.306528640742556	425.53994307953906	
4.227027102224092	-169.78800099597203	-20.38934476358812	46.300615252434724	-20.389344763588255	430.0729126395223	51.660489586961	46.300615252434625	51.660489586960985	451.15323762933895	
4.277348853441046	-124.20032497787312	-46.63777028285909	-20.2800573289622	-46.63777028285922	371.03135674010895	52.49190876665442	-20.28005732896231	52.49190876665439	478.33421244948545	
4.327670604658	-84.25713412921719	-76.85050601115326	-85.76147502195158	-76.8505060111534	312.7422986580197	46.3908217461132	-85.7614750219517	46.39082174611316	505.64841614921136	
4.3779923558749525	-51.31491837383287	-109.0134313499228	-146.61860958518605	-109.01343134992293	263.7104028714858	31.867579514941767	-146.61860958518616	31.86757951494171	530.8813071809674	
4.428314107091906	-25.76398439728318	-140.87394390730918	-199.63508275559565	-140.8739439073093	230.8187248763366	8.566445430848631	-199.63508275559576	8.566445430848631	551.342787779201	
4.47863585830886	-6.687229041452099	-170.1486395468359	-242.15268720190102	-170.148639546836	218.4078986322042	-22.66137569601853	-242.15268720190116	-22.661375696018553	564.3586598095075	
4.528957609525813	7.901231324971022	-194.61877441653058	-272.26212050648644	-194.61877441653067	227.90720577373517	-59.87021019515932	-272.26212050648655	-59.870210195159295	567.836191761266	
4.579279360742767	20.752765440539235	-212.26130648604726	-288.8689832352294	-212.26130648604743	257.6913137553451	-100.29674037613148	-288.86898323522956	-100.29674037613141	560.6742033369615	
4.629601111959721	34.871267040966586	-221.51493690251002	-291.64415432386187	-221.51493690251016	303.3203764591301	-140.7107680709213	-291.64415432386204	-140.71076807092118	543.0826260849615	
4.679922863176674	52.92423614228122	-221.32348865406846	-280.9612314185084	-221.3234886540686	358.2049754494769	-177.87162052262062	-280.96123141850865	-177.87162052262045	516.5632386428232	
4.730244614393627	76.84464650781486	-211.29092271189515	-257.83839720627157	-211.29092271189535	414.30203088622784	-208.8460183536166	-257.8383972062718	-208.8460183536164	483.69302139446563	
4.78056636561058	107.27199911139036	-191.83397263771303	-223.86897152012915	-191.83397263771326	463.2711919540109	-231.34780295143483	-223.86897152012935	-231.34780295143457	447.6914978440182	
4.830888116827534	143.18268741776893	-164.0798306065072	-181.1774884674459	-164.07983060650747	497.26810793142874	-243.8983714861389	-181.1774884674461	-243.89837148613853	411.9225098325868	
4.881209868044488	182.02036326368602	-129.89897058320324	-132.37753162505325	-129.8989705832036	510.1650335628623	-245.9305674972088	-132.37753162505345	-245.93056749720847	379.3763351592321	
4.931531619261441	219.9824660405905	-91.76562367569389	-80.48153179954791	-91.76562367569434	498.2431527242544	-237.75098242359894	-80.48153179954815	-237.7509824235986	352.26962519681024	
4.981853370478395	252.34861301886139	-52.490173646696356	-28.754481929331007	-52.49017364669684	460.71795279543164	-220.44441140591186	-28.75448192933125	-220.44441140591152	331.7711830323142	
5.032175121695348	274.5748626253715	-15.05873761892299	19.557788671384607	-15.058737618923578	399.97018537815546	-195.7104564440123	19.55778867138439	-195.71045644401204	317.95583918408016	
5.0824968729123015	282.54714743152545	17.84922595724571	61.58352489918502	17.84922595724509	321.05395766669585	-165.66969535236674	61.58352489918484	-165.66969535236652	309.9093241274703	
5.132818624129255	273.8599044650957	43.80433225188666	95.15334493255418	43.80433225188598	231.06030651764638	-132.60394402553322	95.15334493255399	-132.60394402553308	305.98836419728275	
5.183140375346208	247.83067961408113	61.15419677035563	119.1154391024114	61.15419677035493	138.08214280006297	-98.73196700546498	119.1154391024113	-98.73196700546491	304.19757712006555	
5.233462126563162	206.11469815485782	68.87256700225265	133.49058701886207	68.87256700225197	50.03280522445516	-66.03474918025566	133.49058701886202	-66.03474918025566	302.57161365261595	
