# Stress in units of bar (10^5 Pa)
# z	Sxx	Sxy	Sxz	Syx	Syy	Syz	Szx	Szy	Szz
0.0	143.63657014060317	359.1636110741377	17.027551978534873	359.16361107413763	-282.59705967588815	78.1187626028607	17.02755197853427	78.11876260285997	146.75317694348135	
0.04994966274956695	104.32032225633569	361.92129380617126	21.68580054428166	361.9212938061712	-254.99285706790116	57.724012968051376	21.685800544281108	57.72401296805079	166.92003636167712	
0.0998993254991339	88.23116448829246	367.91423957264055	25.09301036592094	367.9142395726405	-228.41071017969455	37.89044252129015	25.09301036592045	37.89044252128973	184.25952717656463	
0.14984898824870085	95.68896828828696	375.42120039423827	26.585219806793535	375.42120039423827	-204.03937699539034	19.31908911545996	26.58521980679309	19.319089115459718	197.5015624865666	
0.1997986509982678	123.81145353334081	381.90081713963343	25.479820831399877	381.90081713963343	-182.30712288077908	2.8044598053143326	25.47982083139947	2.804459805314256	205.3886873678744	
0.24974831374783474	166.32164706391902	384.28964444998115	21.194565249544837	384.28964444998115	-162.4442183080846	-11.032801763787182	21.194565249544482	-11.032801763787116	206.97069552086134	
0.2996979764974017	214.438690836756	379.678977540794	13.43590235963447	379.6789775407939	-142.45852482056625	-21.895527739248607	13.435902359634158	-21.895527739248433	201.86407577412675	
0.3496476392469686	258.3499365909548	365.8059917100875	2.357715090429224	365.80599171008737	-120.19945322592355	-29.79405547111942	2.3577150904289486	-29.794055471119176	190.4007919738095	
0.3995973019965356	288.57976198755875	341.5457733763026	-11.40685530347576	341.54577337630235	-94.54286205003781	-34.90943900154968	-11.406855303476004	-34.90943900154938	173.54597500646133	
0.44954696474610256	298.2543694213935	307.2135896920175	-26.84341369891358	307.2135896920173	-66.85497329387655	-37.439139175939566	-26.843413698913785	-37.43913917593922	152.64832383106722	
0.4994966274956695	283.8859641294258	264.59720545652806	-42.7628425224315	264.59720545652783	-41.62442179955502	-37.50367262975102	-42.76284252243168	-37.50367262975062	129.13352552213928	
0.5494462902452364	246.23276620293348	216.95825584082894	-58.024285052938005	216.95825584082877	-25.640036148431935	-35.21588865285017	-58.024285052938176	-35.215888652849685	104.23438248169141	
0.5993959529948034	189.56327521473165	168.52873228229743	-71.71008649519814	168.52873228229737	-26.372987036076037	-30.87720017242688	-71.7100864951983	-30.877200172426303	78.89257471070285	
0.6493456157443703	120.4547199091505	123.78263123651128	-83.17725785811174	123.78263123651126	-49.70388543542562	-25.191529065692816	-83.17725785811193	-25.191529065692134	53.8423225187645	
0.6992952784939372	46.28504441303312	86.79904457233165	-92.05802844280714	86.7990445723318	-97.76531872802668	-19.390515669881264	-92.05802844280734	-19.39051566988047	29.83306647163907	
0.7492449412435043	-25.743928829785336	60.19628616217519	-98.21296860541409	60.19628616217543	-167.14882686414683	-15.124369460934702	-98.21296860541433	-15.12436946093381	7.867853967081214	
0.7991946039930712	-89.24830549993794	44.306662220103476	-101.7232860711698	44.306662220103874	-249.5752653499124	-14.151551099281868	-101.72328607117004	-14.151551099280894	-10.685847951650727	
0.8491442667426381	-138.67013840286495	37.25910570660763	-102.92783233259689	37.25910570660818	-332.8687463203813	-17.88393842151927	-102.92783233259716	-17.883938421518287	-24.168806649156867	
0.8990939294922051	-169.59571261276133	35.06969464070947	-102.4210284847116	35.06969464071021	-403.588228783741	-27.014054520055677	-102.42102848471183	-27.014054520054724	-30.89809906933438	
0.949043592241772	-179.0201105655722	32.88050567758637	-100.97596825259784	32.88050567758721	-450.0065229709619	-41.281906432748386	-100.97596825259808	-41.28190643274752	-29.556819135477987	
0.998993254991339	-166.71911878849164	26.088501927800387	-99.3536529192553	26.088501927801367	-464.8169982359996	-59.52079888393615	-99.3536529192555	-59.52079888393544	-19.537305735708046	
1.048942917740906	-135.60684891705304	11.678734800787446	-98.04637792856784	11.678734800788462	-446.07359160096644	-79.89488052288817	-98.04637792856798	-79.89488052288766	-1.1609116264931458	
1.0988925804904728	-91.94955842223388	-11.336042008524515	-97.02026217048301	-11.336042008523435	-397.42275136366084	-100.22330524549866	-97.02026217048304	-100.22330524549834	24.34378103154438	
1.1488422432400398	-44.26813629480771	-41.49898227335532	-95.62824828024318	-41.49898227335423	-326.74018037103417	-118.28468804448678	-95.62824828024314	-118.28468804448666	55.10430069763524	
1.1987919059896068	-1.5790221873309633	-75.69653324548054	-92.80617883593193	-75.6965332454794	-243.46248556792474	-132.07091071937572	-92.80617883593182	-132.07091071937575	89.0684261308917	
1.2487415687391736	29.25066830032415	-109.85805532395867	-87.51339305769007	-109.85805532395754	-156.8148296435889	-139.93998832988976	-87.51339305768994	-139.9399883298899	124.45825917805736	
1.2986912314887407	44.500525397202324	-140.0784862843965	-79.22082896402681	-140.07848628439547	-73.83013620820151	-140.7589227396646	-79.22082896402667	-140.75892273966474	160.16129429704517	
1.3486408942383077	45.00069223349237	-163.07606220703587	-68.2284166089626	-163.07606220703485	1.5008092103635917	-134.09170008857967	-68.22841660896248	-134.09170008857976	195.8670513960925	
1.3985905569878745	35.041839362764584	-176.87186535108802	-55.71708848283712	-176.87186535108694	67.55063756904467	-120.35976276202985	-55.71708848283707	-120.35976276202986	232.0053964415424	
1.4485402197374415	20.874365233764397	-180.86295406264003	-43.375203816899834	-180.86295406263895	124.2350532962756	-100.95094041328406	-43.375203816899806	-100.95094041328399	269.3499438848569	
1.4984898824870085	9.004503683773578	-175.58884561178954	-32.786061698401824	-175.5888456117886	171.83458826610968	-78.14679149637675	-32.78606169840184	-78.14679149637658	308.40474958123104	
1.5484395452365753	4.737905351866196	-162.6582239427454	-24.915610347067215	-162.65822394274448	209.91544060892866	-54.75852496585604	-24.915610347067233	-54.75852496585582	348.69401972996695	
1.5983892079861424	10.934555406246215	-144.24095827571682	-19.82436482175432	-144.24095827571594	236.1521898368442	-33.57308732387996	-19.824364821754305	-33.57308732387972	388.22953570375006	
1.6483388707357094	28.242105691218796	-122.82085597016611	-16.809545439827396	-122.82085597016524	247.89551196675808	-16.493317317096373	-16.809545439827303	-16.493317317096192	423.3344765733033	
1.6982885334852762	55.36559959150631	-101.03239797200172	-14.905135173761845	-101.0323979720009	241.71105953398856	-3.871678549052703	-14.905135173761678	-3.8716785490526178	449.1305980417618	
1.7482381962348432	90.11144481806309	-81.73860956818926	-13.447851720879019	-81.73860956818858	215.52691302642154	5.738556584379403	-13.447851720878742	5.738556584379381	460.63176973056045	
1.7981878589844102	130.6702798520094	-67.9471628666623	-12.512475223219505	-67.94716286666169	169.52898039480795	15.207548489594615	-12.512475223219134	15.207548489594426	454.17451772675804	
1.848137521733977	175.93098235862266	-62.40724100179757	-13.011892275719234	-62.40724100179712	107.22133313820677	27.817061563229963	-13.011892275718761	27.817061563229643	428.8831128262824	
1.898087184483544	226.20448139756354	-67.32546147126544	-16.430545882975114	-67.32546147126504	35.54086938705632	45.90595097012542	-16.430545882974574	45.90595097012497	387.5003259683267	
1.948036847233111	282.8427206265209	-83.3519131669022	-24.281287024125575	-83.351913166902	-35.789719736630246	69.59256964280254	-24.281287024125028	69.59256964280198	336.2433208566481	
1.997986509982678	347.14265745893624	-108.8950123359613	-37.486511955080246	-108.89501233596121	-96.06815336186577	96.21443939732036	-37.48651195507977	96.21443939731982	283.6380202853756	
2.047936172732245	419.19050250709273	-139.97814128118148	-55.755737235259545	-139.97814128118154	-135.22963779377238	120.56659914483828	-55.75573723525916	120.56659914483777	238.55284034536288	
2.097885835481812	496.7561088353326	-170.74327740366977	-77.21884122759252	-170.74327740366994	-145.96768667656988	136.13019278891474	-77.21884122759225	136.13019278891431	208.06579743476928	
2.147835498231379	574.8162301025086	-194.6212972613383	-98.38274047167761	-194.6212972613385	-124.28329882772726	136.84294158440355	-98.3827404716775	136.84294158440326	195.86565179925717	
2.1977851609809456	646.0665537376289	-206.01989677633628	-114.4891619496398	-206.01989677633654	-69.97552235124053	118.90983849790263	-114.48916194963985	118.9098384979024	201.68388890976192	
2.2477348237305126	702.5032132449645	-201.5748354487419	-120.32326277000756	-201.57483544874225	14.177663272594165	82.09022647277442	-120.32326277000774	82.09022647277428	221.7739031042115	
2.2976844864800796	737.6332425175108	-180.948805141668	-111.33616629431356	-180.94880514166817	123.28350554724057	30.082846482241642	-111.33616629431386	30.082846482241585	250.26694131324064	
2.3476341492296466	748.5061200492898	-146.67541352621862	-84.91691820638788	-146.67541352621882	250.63226958682617	-30.205314743123424	-84.91691820638816	-30.20531474312343	280.96836166575616	
2.3975838119792137	736.7353323155442	-103.28110176976276	-41.43481129237577	-103.281101769763	387.81354582060254	-90.21311110383343	-41.434811292376104	-90.21311110383343	308.8549318515512	
2.4475334747287807	707.8571301139534	-56.10628575631951	15.319515045623476	-56.10628575631969	524.710431220773	-141.76275716840573	15.319515045623149	-141.76275716840573	330.90084280994836	
2.4974831374783473	669.7145973671712	-10.336153819913932	78.5585984928301	-10.336153819914173	649.4857756231042	-178.91450029075804	78.5585984928298	-178.91450029075816	346.1323144681044	
2.5474328002279143	629.8458059130788	29.855924135261446	139.82238263641025	29.855924135261148	750.050027855537	-199.07143351974815	139.82238263641003	-199.0714335197483	355.0356210428032	
2.5973824629774813	593.4953237050764	61.498089433409234	190.8949464510186	61.498089433409035	815.9608229942482	-203.08860682734735	190.89494645101843	-203.08860682734763	358.66233743335533	
2.6473321257270483	563.2468113506554	82.77229345526703	225.80233677815167	82.77229345526689	841.144094128848	-194.3709775951661	225.80233677815153	-194.37097759516647	357.83231961428714	
2.6972817884766154	539.2053472630427	92.72909575844689	242.19604804590014	92.72909575844668	825.2984225810133	-177.40805414378434	242.19604804589994	-177.4080541437848	352.6761055729735	
2.7472314512261824	520.8851279678724	91.25785006833844	241.70185105749042	91.25785006833823	774.6138980322334	-156.2465433953926	241.70185105749027	-156.24654339539308	342.6619983935271	
2.797181113975749	508.22413799761864	78.89480037605252	229.08456780583214	78.89480037605247	699.8435524560141	-133.467013173172	229.08456780583194	-133.46701317317252	326.8511919262348	
2.847130776725316	502.281996490828	57.41954231050906	210.61356100892587	57.419542310509044	613.4038644316686	-109.97201105391488	210.61356100892567	-109.97201105391537	304.2762072606308	
2.897080439474883	504.56041345628614	30.075025602780375	192.204563291764	30.07502560278045	526.4927447968697	-85.5568613929595	192.20456329176375	-85.55686139295996	274.25795374929356	
2.94703010222445	515.895857639127	1.593863899660704	177.8896729736602	1.5938638996608034	446.4083056621316	-59.89520974397522	177.88967297365997	-59.89520974397564	236.55449857209976	
2.996979764974017	535.2223814116462	-22.48314516700941	169.13680348089906	-22.483145167009255	375.8125121899572	-33.49659724254553	169.13680348089883	-33.496597242545846	191.3875585915896	
3.046929427723584	558.9909102996722	-36.77729226088903	165.15342800847554	-36.777292260888835	313.7622882182793	-8.256370532272676	165.1534280084753	-8.256370532272886	139.42547286633427	
3.0968790904731507	581.9632646998396	-37.67596702538348	163.78453119064062	-37.67596702538326	257.3621426827411	12.696650547092217	163.7845311906404	12.696650547092075	81.95080914766747	
3.1468287532227177	597.6576145870811	-24.479737397706437	162.7117556277738	-24.479737397706238	203.67995706688964	25.760275046688868	162.71175562777356	25.760275046688804	21.14067280635363	
3.1967784159722847	599.9644777077235	0.01860182044394776	160.4430802561254	0.018601820444153816	151.10769358573702	27.871937024976162	160.44308025612514	27.87193702497617	-39.6348548606764	
3.2467280787218518	584.3585415842873	29.965514401742368	156.8025488173366	29.96551440174256	99.8472226355061	17.537563001924113	156.80254881733634	17.537563001924163	-95.81420512381908	
3.296677741471419	548.3455969861956	57.725028848240164	152.8149818768074	57.72502884824033	50.312895110399026	-4.640513130258032	152.81498187680717	-4.640513130257933	-142.18305898301236	
3.3466274042209854	492.0748307577032	75.84605098486688	150.19602277206013	75.846050984867	3.7955382494641086	-35.907281371214026	150.1960227720599	-35.9072813712139	-173.84452739186125	
3.3965770669705524	417.9628265955071	78.95322443116804	150.59386821625196	78.95322443116814	-39.363800692190864	-71.79599050254095	150.59386821625174	-71.79599050254082	-187.5474659592016	
3.4465267297201194	330.6584930302214	65.16172255939253	154.9551584715748	65.16172255939264	-79.14092414195557	-106.95040365434093	154.9551584715746	-106.95040365434079	-182.77403550815097	
3.4964763924696864	236.49588256125043	36.38271051301991	163.15176330544244	36.382710513019994	-115.78347660652103	-136.0568256678106	163.15176330544227	-136.05682566781047	-162.184940014578	
3.5464260552192535	142.57892605066675	-1.921254823142716	173.98038418403948	-1.9212548231426432	-149.3708369184456	-154.71684810089675	173.9803841840393	-154.71684810089658	-131.0103100974898	
3.5963757179688205	55.93084298299675	-42.25467471812949	185.45196166217394	-42.254674718129436	-179.61310410170057	-159.97089489089072	185.45196166217383	-159.97089489089058	-95.73540758541228	
3.646325380718387	-17.400800341028457	-76.7905259462677	195.18306497145326	-76.79052594626764	-206.08202592000328	-150.6352664887733	195.18306497145312	-150.6352664887732	-62.42789512778403	
3.696275043467954	-73.36517121809277	-98.80149576847202	200.67493508139228	-98.80149576847197	-228.6956498567621	-127.16212996824152	200.67493508139216	-127.16212996824143	-35.32773208525337	
3.746224706217521	-110.35807390302053	-104.187917251093	199.59087471077098	-104.18791725109293	-247.5429519729447	-91.31527540808287	199.5908747107709	-91.31527540808281	-16.172645089316955	
3.796174368967088	-129.21090662269896	-91.84228370440036	189.92691321489997	-91.8422837044003	-262.9839108901378	-45.62865058849191	189.9269132148999	-45.628650588491865	-4.461312918216734	
3.846124031716655	-132.8389465110386	-63.48978514276051	170.23838804237613	-63.489785142760475	-274.54842756869505	7.124134082772869	170.23838804237604	7.124134082772915	1.8201362276423598	
3.896073694466222	-125.148785144817	-22.989952500138553	139.9646746484062	-22.98995250013852	-280.63306242818726	64.27176022967991	139.96467464840615	64.27176022967993	5.291766630964148	
3.946023357215789	-110.64837955072048	24.611589464203675	99.77637592275478	24.6115894642037	-278.28789756043295	123.33320671669004	99.77637592275475	123.33320671669006	8.334448025619128	
3.995973019965356	-93.43910789279175	74.1580055357529	51.822546499883885	74.15800553575292	-263.638376862554	181.97843532970376	51.822546499883856	181.97843532970376	12.468259273020724	
4.045922682714923	-76.64734838068857	120.98119154212975	-0.24832476707217133	120.98119154212972	-233.1496778332019	237.889928533741	-0.24832476707217843	237.88992853374097	18.15623383186236	
4.09587234546449	-62.56437379145109	161.34701440520695	-51.6311124167042	161.3470144052069	-184.73006184068373	288.88182761501275	-51.6311124167042	288.8818276150127	24.825417203817295	
4.145822008214057	-51.89152669333375	192.39325221989574	-97.09099564239574	192.39325221989563	-118.7428455642008	333.1641563961309	-97.09099564239573	333.16415639613086	31.11817015878495	
4.195771670963624	-43.64930317189501	212.2162407587055	-131.89957779457194	212.2162407587054	-37.84709169746402	369.732426083272	-131.89957779457194	369.73242608327183	35.46625105109144	
4.245721333713191	-34.45772705810169	219.76891009314903	-152.81503629302742	219.76891009314886	54.19025022253214	398.6023890098178	-152.8150362930274	398.60238900981767	36.882135312270485	
4.295670996462758	-18.908303473783107	214.678009492836	-158.83482721637583	214.67800949283577	153.62440449642148	420.73466478112937	-158.8348272163758	420.7346647811292	35.62347315204756	
4.345620659212325	9.890494677602607	197.68377294925898	-151.45416526210965	197.68377294925875	258.21512550824923	437.55765875342433	-151.4541652621096	437.55765875342416	33.45624691100889	
4.395570321961891	58.90703861479086	170.3554307628329	-134.4465525885003	170.35543076283267	367.2188451419016	450.17680998543483	-134.44655258850025	450.17680998543466	33.211365190097894	
4.445519984711458	132.71040461119898	135.02423225361864	-113.03424615114974	135.0242322536184	480.85211968651635	458.69552678301545	-113.03424615114963	458.69552678301545	37.86230451482804	
4.495469647461025	231.6037676385947	94.48254871219987	-92.73480041133328	94.48254871219959	598.63492393069	461.8765809975735	-92.73480041133317	461.87658099757346	49.29611469053343	
4.545419310210592	350.535119576361	51.626079934999375	-78.12851078203991	51.626079934999055	718.3098921756821	457.4447448769212	-78.12851078203974	457.4447448769213	67.3990965288263	
4.595368972960159	479.5968496872556	9.214235148345459	-71.84965874115022	9.21423514834514	835.0375965953262	442.9368657537268	-71.84965874114997	442.9368657537269	89.92920039490389	
4.645318635709726	605.7500717123445	-30.211817891858	-74.04295786417262	-30.211817891858423	942.4401214645305	416.83031083779645	-74.04295786417231	416.8303108377966	113.23201376281801	
4.695268298459293	716.1266061347212	-64.2869841659703	-82.52553542038288	-64.28698416597074	1034.0403845659043	379.4682617114556	-82.5255354203825	379.46826171145585	133.53953496764967	
4.74521796120886	800.7246459484097	-90.82396566767848	-93.49468581555533	-90.823965667679	1105.6331269055945	333.3307493370951	-93.49468581555487	333.3307493370955	148.32524171714925	
4.795167623958427	853.9468053132979	-108.04475148198999	-102.5717645913706	-108.04475148199059	1156.327960824382	282.5363221884734	-102.57176459137006	282.5363221884738	157.04685022069793	
4.845117286707994	874.9206385046964	-114.779231210337	-105.9475119003213	-114.77923121033771	1188.7101656058192	231.7907252084845	-105.94751190032073	231.7907252084851	161.04388224995242	
4.895066949457561	866.1627106970218	-110.9373163090321	-101.35368875635248	-110.93731630903285	1208.1312204722924	185.1288962615867	-101.35368875635187	185.12889626158722	162.68232689973712	
4.9450166122071275	831.8452334136133	-97.66411350965949	-88.52868927866326	-97.66411350966027	1220.5383583250948	145.08892820128932	-88.52868927866268	145.08892820128986	164.2015252563765	
4.9949662749566945	776.28017904171	-77.56475817904838	-69.18684203155141	-77.56475817904924	1230.8522650924522	112.53433975982878	-69.18684203155084	112.5343397598293	166.77085851807357	
5.044915937706262	703.474491851724	-54.40261461002507	-46.476775114995554	-54.402614610025864	1241.943277090232	87.04498343559428	-46.47677511499502	87.04498343559472	170.2859437208901	
5.094865600455829	617.4932470594124	-32.64630107873077	-24.090938732781524	-32.646301078731426	1253.8872245870568	67.61873992282034	-24.090938732781034	67.61873992282068	173.71104224490554	
5.144815263205396	523.418885779331	-16.704353837243787	-5.31725886845684	-16.70435383724434	1264.6558302915244	53.26334537675473	-5.317258868456392	53.26334537675499	175.79834072814162	
5.194764925954963	427.7072314793199	-10.05854817786011	7.6447072580530495	-10.058548177860494	1270.44504321769	43.20420262303081	7.644707258053442	43.204202623030966	175.66694460700108	
