# Stress in units of bar (10^5 Pa)
# z	Sxx	Sxy	Sxz	Syx	Syy	Syz	Szx	Szy	Szz
0.0	-37.232928073336694	287.7378297743935	20.985085585030127	287.7378297743935	-363.1408085549368	96.65469607098734	20.98508558502963	96.65469607098584	131.11017011630577	
0.04994966274956695	-88.50273236093796	286.6613329017382	20.462203937283913	286.6613329017381	-347.84138559828705	54.72387449884254	20.46220393728374	54.72387449884133	152.72080773620752	
0.0998993254991339	-111.22240775440989	323.51071817211107	22.081929599254075	323.51071817211096	-244.8381193142634	22.367005324207838	22.081929599253932	22.367005324207252	194.9240994185655	
0.14984898824870085	-99.56382807889545	375.1702117607287	30.702470114012254	375.17021176072853	-90.81658273121376	-2.0804700556937874	30.702470114011938	-2.0804700556936666	241.87224039406095	
0.1997986509982678	-43.56664453789144	420.59797611026397	47.895474160271895	420.59797611026386	4.15067718636638	-24.886857980494078	47.89547416027138	-24.886857980493463	273.64135268043674	
0.24974831374783474	58.83268830549579	451.2834059647424	64.40242175107127	451.2834059647424	-45.11025738612716	-44.56712470189129	64.40242175107072	-44.56712470189052	280.4944059876968	
0.2996979764974017	204.29360855228606	464.7567196705903	64.27736093437323	464.7567196705904	-197.21618971941842	-52.95167228390571	64.27736093437282	-52.9516722839051	264.5799164104776	
0.3496476392469686	380.22993225319016	458.3054694507957	39.80310763645437	458.3054694507958	-312.281553401603	-46.622882766324324	39.80310763645416	-46.62288276632397	233.2320286495227	
0.3995973019965356	546.0469557234087	431.28259062355494	-0.3343589481245619	431.2825906235548	-291.0391130698217	-33.76078576716207	-0.3343589481246525	-33.76078576716189	193.43861391801175	
0.44954696474610256	634.382008826901	386.95677171178045	-39.340050952632104	386.95677171178	-158.50171452868878	-28.741070749059563	-39.340050952632225	-28.741070749059453	151.52836864079686	
0.4994966274956695	591.981724576587	327.9768856226563	-66.31700784375967	327.97688562265563	-3.683054599651456	-39.814431155423385	-66.3170078437598	-39.81443115542321	114.69158125419378	
0.5494462902452364	425.10453743739754	251.74276522000207	-80.87205105310497	251.74276522000136	120.83076901288345	-60.8381631262687	-80.87205105310508	-60.838163126268434	88.99842116130202	
0.5993959529948034	203.67765244223716	156.1994670729437	-88.0026049011914	156.1994670729432	211.23123402919148	-74.62465913205025	-88.00260490119149	-74.6246591320499	74.3904260016713	
0.6493456157443703	20.3892030365688	52.1028031709308	-93.13639252537082	52.102803170930656	259.2216092007999	-65.44372240987252	-93.13639252537092	-65.44372240987204	62.76971744138218	
0.6992952784939372	-66.44258769106084	-38.40114753680098	-100.88338094559995	-38.40114753680088	228.78565574102691	-30.492674796371723	-100.88338094560007	-30.49267479637105	43.22131489410291	
0.7492449412435043	-73.01340232069467	-95.72835386690332	-113.2664196739359	-95.72835386690298	85.17499547516266	17.270494799803814	-113.26641967393606	17.2704947998048	10.674390726754766	
0.7991946039930712	-78.76057595330347	-105.11225111097332	-126.74537783557574	-105.11225111097292	-167.25070071687108	55.307253579301765	-126.74537783557585	55.30725357930311	-30.702034411551836	
0.8491442667426381	-159.26105550029246	-54.08507751963086	-132.98303185799682	-54.085077519630374	-471.14801777700586	63.67697720174864	-132.983031857997	63.676977201750255	-71.97695957960032	
0.8990939294922051	-315.9361077898016	46.74982154178403	-124.98856076968572	46.74982154178463	-734.6361787116925	37.33843619760513	-124.98856076968612	37.33843619760682	-104.26488019522989	
0.949043592241772	-462.94279816262696	146.36842303368888	-103.475172578893	146.36842303368977	-874.6126922808096	-10.575337136551415	-103.47517257889368	-10.575337136549901	-118.7772002826986	
0.998993254991339	-492.6709747020097	185.19982462895007	-77.81005545771251	185.19982462895135	-861.0453326795733	-58.88001791251221	-77.81005545771326	-58.88001791251105	-107.193878603905	
1.048942917740906	-366.30877925053915	147.62848219855857	-60.943865061128804	147.6284821985601	-727.9744690258337	-94.12692876117954	-60.943865061129344	-94.12692876117882	-67.24159980687554	
1.0988925804904728	-140.58989796304752	65.9837902411206	-62.47616140975771	65.98379024112214	-539.4624349994632	-118.27582494553891	-62.47616140975778	-118.27582494553869	-8.137217711625286	
1.1488422432400398	90.0503316244764	-22.21043606800123	-84.49577595838387	-22.210436067999993	-344.14516325153147	-141.8555218418566	-84.49577595838349	-141.8555218418569	53.318216081881445	
1.1987919059896068	253.45290038364547	-101.08273642217095	-120.11895403221543	-101.08273642216994	-164.90958409995324	-169.92169310261218	-120.1189540322148	-169.9216931026129	104.99933739295209	
1.2487415687391736	310.93748995725235	-165.872180357997	-152.70138527749532	-165.872180357996	-18.031257163128544	-195.02110573866673	-152.70138527749464	-195.0211057386677	146.6198500222551	
1.2986912314887407	257.17345863144266	-212.2680410840152	-159.26289990732994	-212.26804108401402	76.91260091087253	-204.68954117643938	-159.26289990732943	-204.6895411764403	183.16976645653716	
1.3486408942383077	131.2436996705611	-243.47576825050527	-123.86850468339424	-243.47576825050405	109.90119830571119	-195.3029210635592	-123.86850468339398	-195.30292106355984	214.50829241022586	
1.3985905569878745	2.2867890385667606	-266.1359181131446	-54.12129588569516	-266.1359181131434	99.26996943793499	-175.0863795549497	-54.12129588569521	-175.0863795549499	235.96797117108696	
1.4485402197374415	-78.05641503921908	-271.82248655790477	17.693566097252415	-271.82248655790374	95.3314799634742	-150.57560928060698	17.69356609725209	-150.57560928060676	247.81492517201622	
1.4984898824870085	-107.38515026631036	-243.5626826933317	55.32602837673644	-243.56268269333074	143.87510257486292	-113.92720696864514	55.32602837673603	-113.92720696864453	259.84332597489197	
1.5484395452365753	-113.14582903820208	-186.32416194535392	43.8216798033432	-186.32416194535296	237.64947914806953	-51.53854664087285	43.821679803342874	-51.538546640871964	286.71417518382	
1.5983892079861424	-107.48286611042133	-131.32045302687234	-1.8052110696509747	-131.3204530268714	325.4200563241767	31.930581195313728	-1.8052110696511772	31.93058119531465	340.7882094471369	
1.6483388707357094	-71.24734276448368	-103.53297947692717	-48.36623870845777	-103.53297947692617	373.82224091059345	102.94356350732357	-48.36623870845787	102.94356350732436	426.6912552743634	
1.6982885334852762	10.607163525064436	-97.48362874977262	-66.69835285776222	-97.48362874977158	394.7449742473476	119.21127102654802	-66.69835285776223	119.21127102654849	536.5854185052231	
1.7482381962348432	111.2797836030615	-87.58981468540262	-50.38988389278546	-87.58981468540169	408.19116727815776	65.14714891658546	-50.38988389278533	65.14714891658558	645.8135766518852	
1.7981878589844102	181.67504012765068	-55.86073445928105	-17.059885375936403	-55.86073445928025	397.26464887027976	-29.741313074834864	-17.059885375936023	-29.741313074835084	712.847606308371	
1.848137521733977	204.6106396086355	-3.3448997920274337	10.86921652253828	-3.344899792026922	311.14412987412294	-107.55192605688038	10.869216522538965	-107.55192605688094	692.1639156464423	
1.898087184483544	207.41447778197556	56.563239599226165	25.845778543129576	56.56323959922662	120.25243037640368	-120.77574015153598	25.845778543130546	-120.7757401515369	563.9478554603546	
1.948036847233111	220.4220412403766	95.70151062763657	32.65032808442747	95.70151062763678	-132.48492373568644	-59.47488344523142	32.65032808442864	-59.474883445232635	359.7728568146532	
1.997986509982678	245.3353438292093	65.93332982904357	31.481193198922185	65.93332982904354	-354.51681257763227	53.55061843835435	31.48119319892333	53.5506184383531	151.05551377513882	
2.047936172732245	279.22071980161684	-65.42919454133238	13.082730876329398	-65.42919454133279	-474.65468017695446	184.3235774963632	13.082730876330302	184.32357749636225	3.4305960049103135	
2.097885835481812	353.12867608846125	-260.5962937444678	-30.107478679677826	-260.59629374446854	-479.9107630578193	299.7670040891626	-30.107478679677357	299.767004089162	-56.50523692221567	
2.147835498231379	508.47023023539793	-419.1616089637471	-95.159413150712	-419.1616089637479	-393.1216064740345	369.7864368414378	-95.159413150712	369.78643684143765	-34.05390617002942	
2.1977851609809456	732.773092466535	-459.6299173791259	-170.39311978880687	-459.6299173791265	-242.951441318788	372.2035612367446	-170.39311978880727	372.20356123674463	55.10397554928748	
2.2477348237305126	957.3118637795919	-385.14857423789607	-240.87492273896646	-385.14857423789636	-65.45653135769149	298.3808015656541	-240.8749227389671	298.38080156565417	187.25485099339977	
2.2976844864800796	1109.6152274750577	-267.8796533839135	-290.987788593801	-267.8796533839136	81.27384302286293	153.39249135570702	-290.9877885938017	153.3924913557072	321.9934054566218	
2.3476341492296466	1132.1149134277175	-174.28301103800646	-302.02943034340876	-174.28301103800646	161.0192283082365	-40.953429069029596	-302.0294303434094	-40.953429069029355	412.02824129694335	
2.3975838119792137	987.2413254734444	-109.00426786055358	-251.2631538698916	-109.00426786055348	232.93474834399035	-238.81797785563137	-251.26315386989205	-238.817977855631	433.0945340782764	
2.4475334747287807	712.7930484881033	-33.96437164063502	-123.47455144443217	-33.96437164063502	412.93453909783466	-380.5409344794805	-123.47455144443248	-380.54093447948003	402.24501622971474	
2.4974831374783473	450.4008698167621	63.86370657974999	69.26606135545491	63.863706579749845	733.0781580409351	-426.83251785640124	69.26606135545475	-426.8325178564008	361.0692433099181	
2.5474328002279143	349.0725521765003	144.96843885621874	280.606326732403	144.96843885621837	1089.8252509649865	-383.54403452654356	280.6063267324029	-383.54403452654344	340.39006631032777	
2.5973824629774813	431.63412953568206	164.30013485738323	446.8721115108684	164.30013485738277	1337.4063468039385	-289.7755938441878	446.8721115108684	-289.77559384418805	343.15003110980615	
2.6473321257270483	586.3264221009479	130.2693248528173	516.8735728717731	130.26932485281685	1391.0892641070384	-188.11975773867636	516.8735728717731	-188.11975773867695	356.9032818203939	
2.6972817884766154	678.3105172064093	103.10376301385406	475.73452606412053	103.1037630138536	1249.4262128709552	-108.70957974339737	475.7345260641205	-108.70957974339817	373.15592398632407	
2.7472314512261824	645.6543405463758	130.65777882343542	351.5928008565527	130.6577788234352	969.5665699222168	-69.9106236734052	351.59280085655246	-69.91062367340609	389.3857370444947	
2.797181113975749	517.6418017845601	189.42629923153564	202.78402265529184	189.42629923153558	644.4881570644336	-78.2454573621509	202.78402265529158	-78.24545736215177	397.1091686622624	
2.847130776725316	378.96955786348366	204.60182215402645	89.81225668402061	204.60182215402662	378.54393167754154	-120.29855727844706	89.81225668402028	-120.29855727844784	380.27428012354244	
2.897080439474883	310.4821894580094	131.5288937100688	46.1024565900442	131.52889371006913	245.31177149201244	-160.03726315053652	46.10245659004388	-160.03726315053711	332.8060638905929	
2.94703010222445	340.2975794544308	-2.525403368510794	66.6174814421303	-2.5254033685104815	249.09142538477698	-157.36463138626408	66.61748144213007	-157.36463138626448	269.8279353220656	
2.996979764974017	440.56699775578807	-136.94337976050394	120.78813091223898	-136.94337976050366	324.8769896290754	-98.04378329893765	120.78813091223884	-98.04378329893797	212.155537825493	
3.046929427723584	563.1814866203264	-228.28450180893418	176.31649378047697	-228.28450180893398	386.7845103869396	-3.6154298539484984	176.31649378047686	-3.6154298539486547	166.2357515648588	
3.0968790904731507	671.0878180049294	-257.31448939894483	214.53797771852703	-257.3144893989446	379.53642750755176	89.47499465374734	214.53797771852683	89.47499465374729	125.38604813753848	
3.1468287532227177	743.3397988314528	-215.48907367293495	229.88984484799377	-215.48907367293467	294.5437238083613	155.1714655601736	229.88984484799352	155.17146556017363	78.44343546689815	
3.1967784159722847	771.0528315530003	-106.27497705189637	221.1787175513618	-106.27497705189612	160.06439552925758	181.68158983723944	221.1787175513615	181.68158983723953	8.53546235485032	
3.2467280787218518	757.3444330521161	45.68236868444348	187.9454231606539	45.682368684443716	25.76233507858305	162.67064816982463	187.9454231606536	162.6706481698248	-101.36336824436117	
3.296677741471419	710.684061046746	196.08729440792962	136.4711718699587	196.0872944079298	-60.79217185395419	98.28926942639825	136.47117186995845	98.28926942639846	-246.13839277328344	
3.3466274042209854	634.94509905699	297.43395364072575	86.2677337690846	297.4339536407258	-81.56803388781607	3.491908466219061	86.26773376908439	3.491908466219268	-385.2999378803947	
3.3965770669705524	532.2377151728093	320.9201608157932	64.1684267038015	320.9201608157932	-57.388976822372705	-95.45260047681815	64.16842670380132	-95.45260047681796	-460.15406610863107	
3.4465267297201194	407.37992298831716	266.23054982503623	85.42682641707538	266.2305498250363	-32.20545007503342	-177.08906217249438	85.42682641707519	-177.0890621724942	-428.2466695585184	
3.4964763924696864	261.65823247929455	152.69890959575446	138.35453426686925	152.6989095957545	-49.69161865525629	-235.11796324130734	138.35453426686905	-235.11796324130717	-291.039976607251	
3.5464260552192535	93.9092058317178	7.106953807053445	191.26017348018706	7.106953807053463	-128.1139492939115	-273.4511975040026	191.2601734801869	-273.45119750400244	-101.3179315304177	
3.5963757179688205	-79.64444436456257	-138.20230191358286	219.61667203167246	-138.20230191358286	-239.1733432222981	-293.1243707385207	219.61667203167232	-293.12437073852055	57.883119988246776	
3.646325380718387	-219.15531639801765	-247.94994927746637	225.98862756512233	-247.94994927746637	-320.3316260029135	-284.0482972184486	225.98862756512216	-284.04829721844857	121.3198683672322	
3.696275043467954	-288.0219156386803	-298.3754199168468	229.96583524680153	-298.3754199168468	-326.6926717108803	-232.80275188708828	229.9658352468014	-232.80275188708822	86.84652152507348	
3.746224706217521	-282.1002564130014	-289.0680500265323	242.16048192018218	-289.06805002653226	-271.0396522546849	-143.30970152452406	242.16048192018206	-143.30970152452406	14.454624224265793	
3.796174368967088	-230.03695211783716	-235.7937891407007	255.1377925276409	-235.79378914070065	-209.07287218463975	-45.56772817047154	255.13779252764078	-45.56772817047157	-27.532153363731325	
3.846124031716655	-170.13718486781153	-153.94777022544696	256.5970529869618	-153.94777022544685	-192.3784246750756	25.650519432022193	256.5970529869617	25.65051943202219	-18.441162018441588	
3.896073694466222	-125.96128926705752	-53.06259916372173	240.1446303796483	-53.0625991637216	-237.28859175201902	62.96242460664813	240.14463037964828	62.96242460664817	10.267925657160283	
3.946023357215789	-98.53853193817616	53.44028604894635	201.07073250431648	53.44028604894642	-326.45424307549024	93.35903302580647	201.07073250431648	93.35903302580655	17.25502348068079	
3.995973019965356	-78.09941586624204	142.19603379403935	131.2595514066631	142.19603379403938	-423.6185571216895	151.87756285088838	131.25955140666306	151.87756285088847	-8.3375987483983	
4.045922682714923	-58.70211339882596	194.39404007246355	27.029138627542764	194.39404007246353	-480.0491009336556	247.98801280132835	27.029138627542785	247.98801280132832	-39.80996575150026	
4.09587234546449	-38.98304060017779	216.79126537060466	-97.55434967721914	216.79126537060463	-444.70429084772553	356.31378167782515	-97.55434967721911	356.31378167782503	-36.37615809150715	
4.145822008214057	-14.57995137512144	237.42278149611897	-210.92685462722895	237.42278149611894	-296.9974739932642	439.5644573858282	-210.92685462722892	439.56445738582806	20.365833437519814	
4.195771670963624	16.638207230624616	275.78315495040425	-284.4018340007155	275.78315495040425	-76.81589986102844	478.31423349491797	-284.40183400071544	478.3142334949179	103.88758623099514	
4.245721333713191	37.206304419579624	321.1175048553835	-312.1894195185129	321.1175048553834	134.9006788141776	477.2209800271444	-312.1894195185129	477.22098002714426	159.04428500803937	
4.295670996462758	9.48846590744671	341.7660033680143	-305.1794558920624	341.7660033680141	274.39403937742236	451.41259629556714	-305.1794558920623	451.41259629556697	144.94264985291198	
4.345620659212325	-88.51702192791075	312.6576979247555	-267.20358570407643	312.6576979247552	332.20394035153595	418.2450669208081	-267.20358570407643	418.245066920808	63.56127181313938	
4.395570321961891	-217.04767651326782	235.67153052613867	-190.86873597179496	235.67153052613835	340.34280824736754	398.3913086392881	-190.86873597179496	398.3913086392879	-43.901239089354576	
4.445519984711458	-276.1713973689559	139.52974401962808	-82.1668340813636	139.52974401962777	344.58059640853867	411.4410377362983	-82.1668340813635	411.4410377362981	-120.44506860556191	
4.495469647461025	-170.0792178740306	61.15417526719378	22.612383456101107	61.154175267193466	398.42901442140607	463.78890436503957	22.612383456101234	463.7889043650394	-123.35878167979826	
4.545419310210592	122.50132099568802	20.450920658467613	77.15255595920482	20.45092065846744	558.4145956650626	539.6254041974933	77.15255595920493	539.6254041974934	-46.9343778961371	
4.595368972960159	526.1093737300225	4.348179812189628	62.777580282555135	4.348179812189514	840.7575648259292	602.350120125838	62.77758028255519	602.3501201258382	79.23236537004065	
4.645318635709726	903.3550719482514	-23.8256046993941	1.2427657944941792	-23.825604699394255	1168.389727525246	608.9320884148756	1.2427657944942716	608.9320884148758	209.87465768290053	
4.695268298459293	1131.0290863000414	-86.68951514943946	-69.82820410942094	-86.68951514943976	1397.1908465070362	534.3897592579697	-69.8282041094207	534.3897592579699	298.49381054644243	
4.74521796120886	1180.284521972355	-163.88717518999906	-129.11337463923948	-163.8871751899995	1435.9118836918547	390.8751971557289	-129.11337463923897	390.8751971557292	309.0241889289928	
4.795167623958427	1119.0294325642562	-214.87606565481943	-176.8122014096612	-214.87606565481997	1330.620378931918	224.5208195012632	-176.81220140966047	224.52081950126365	238.5266469121458	
4.845117286707994	1024.903835543861	-223.60525783526484	-213.82693875621672	-223.60525783526538	1207.3140076061538	92.09871516770617	-213.82693875621587	92.09871516770684	130.87013708031492	
4.895066949457561	928.3412589562665	-202.1998362668747	-225.84058715991304	-202.1998362668753	1145.4186312259824	33.2075963781205	-225.84058715991216	33.207596378121394	52.298088056470895	
4.9450166122071275	845.793212479337	-163.24730609198352	-192.8792399200064	-163.24730609198443	1137.6798202311506	49.72929975237346	-192.87923992000563	49.72929975237445	46.25782206123375	
4.9949662749566945	807.3448803968311	-112.6495928665706	-112.92498947326217	-112.64959286657185	1154.0520076396408	102.1006154344193	-112.92498947326152	102.10061543442016	109.98872671834147	
5.044915937706262	816.1679820588926	-57.685701631874224	-12.755690043219278	-57.68570163187587	1192.2924482849246	132.01919133420088	-12.755690043218717	132.01919133420154	203.1008679084627	
5.094865600455829	813.5156326127964	-0.28330710485244026	66.64518982077966	-0.28330710485425925	1252.7217945071154	103.32842977512331	66.64518982078012	103.32842977512375	270.8365868245089	
5.144815263205396	713.395785892726	63.453343914615175	98.13581583145279	63.45334391461381	1306.9342718870262	29.362007561480084	98.13581583145316	29.36200756148036	273.3139297867506	
5.194764925954963	476.9496021450814	123.22558324191196	85.54312902798048	123.22558324191104	1326.5910656411043	-38.72824494068407	85.54312902798074	-38.728244940684	212.80859243706894	
