# Stress in units of bar (10^5 Pa)
# z	Sxx	Sxy	Sxz	Syx	Syy	Syz	Szx	Szy	Szz
0.0	262.08343025229823	281.8230828221805	-139.97917251935118	281.82308282217934	100.40151057351305	-120.00061316438216	-139.97917251935112	-120.00061316438178	173.8313393014658	
0.05280374888362468	265.86574291770813	257.62804871541374	-150.76171430412057	257.6280487154127	117.8234860501869	-116.60928947944173	-150.7617143041205	-116.6092894794414	188.7434977797932	
0.10560749776724936	262.32544975968153	234.19052043564238	-162.57322304951572	234.19052043564153	133.4725427568131	-115.01262289895436	-162.5732230495157	-115.0126228989541	201.0296566553606	
0.15841124665087403	254.45760158335892	210.79940800737882	-174.76303690948532	210.79940800737802	145.61859245162566	-115.94073356310258	-174.76303690948532	-115.94073356310241	210.16736786863262	
0.2112149955344987	245.214245146402	186.10572442114926	-186.47120714242254	186.10572442114858	151.60447303960362	-119.76080793613872	-186.4712071424226	-119.76080793613858	215.9941866050319	
0.2640187444181234	236.6619860960829	158.68424688728163	-196.74011475319213	158.68424688728095	148.25606689874462	-126.25422559435711	-196.7401147531922	-126.25422559435701	218.7514373420202	
0.31682249330174805	230.29797378940256	127.5451627514224	-204.6221744051035	127.54516275142169	133.23600523494719	-134.5360170203502	-204.6221744051036	-134.53601702035013	219.02519399654042	
0.36962624218537277	226.92130365083054	92.6733878266107	-209.26798805619714	92.67338782661005	105.69997667248313	-143.18716699961064	-209.26798805619734	-143.18716699961058	217.60796634693838	
0.4224299910689974	226.9322142826469	55.2079528818248	-210.0172877960058	55.20795288182414	67.06520178335207	-150.5590113613647	-210.017287796006	-150.55901136136455	215.32053535373763	
0.4752337399526221	230.41898909336584	17.488822469307646	-206.4765087665051	17.48882246930699	21.021650845076422	-155.17385251515142	-206.47650876650533	-155.1738525151512	212.82742761334936	
0.5280374888362468	237.2252480885473	-17.541041026468193	-198.5924895159503	-17.541041026468847	-27.106111179598685	-156.10055869252147	-198.59248951595055	-156.10055869252113	210.53319565261964	
0.5808412377198715	246.57090413098828	-46.746509327167644	-186.728346298981	-46.746509327168276	-71.41656612987029	-153.14436072719312	-186.72834629898125	-153.14436072719266	208.5896318268959	
0.6336449866034961	257.0501912469906	-67.62664713466172	-171.6861384222632	-67.62664713466232	-106.64257836925816	-146.84150695933943	-171.6861384222634	-146.8415069593389	206.97486497592524	
0.6864487354871208	266.58775605088266	-78.58522108889109	-154.64275108745096	-78.58522108889163	-129.07074122371134	-138.22169356915944	-154.6427510874511	-138.22169356915882	205.6482318301227	
0.7392524843707455	272.74875623021603	-79.11400201983878	-136.98179129857456	-79.11400201983925	-137.3189175641882	-128.48018003554856	-136.98179129857465	-128.48018003554793	204.72275141145352	
0.7920562332543701	273.2304715153353	-69.72315700887651	-120.05177444547637	-69.72315700887688	-132.18026227102433	-118.69343199585899	-120.05177444547644	-118.69343199585839	204.57426144830794	
0.8448599821379948	266.4218451562103	-51.67195206164011	-104.87669858550328	-51.671952061640376	-116.27851426008266	-109.67908844943983	-104.8766985855033	-109.67908844943929	205.85970480510812	
0.8976637310216196	252.04756840033303	-26.812286577824977	-91.91444262857884	-26.812286577825102	-92.98910657348105	-102.00093164952003	-91.91444262857884	-102.00093164951956	209.41235601367083	
0.9504674799052442	231.18948194655866	2.4800118419834645	-80.97285124251479	2.480011841983456	-65.64060430702408	-96.08460466612742	-80.97285124251478	-96.08460466612703	216.05630861665767	
1.003271228788869	206.24341410190328	33.36184276701835	-71.28697753876348	33.36184276701847	-36.656273475088184	-92.26730174927617	-71.28697753876342	-92.26730174927587	226.40192182118528	
1.0560749776724936	180.08941111083942	62.544103079949785	-61.76768189695236	62.54410307995	-7.370734234742869	-90.78003649576749	-61.76768189695231	-90.78003649576728	240.67407044663503	
1.1088787265561182	155.52609323800627	86.53829438455145	-51.34017837270596	86.53829438455173	22.127955784886893	-91.57865904939523	-51.34017837270591	-91.57865904939506	258.6738421879044	
1.161682475439743	134.33509224275963	102.21193540576516	-39.29522270987441	102.21193540576552	52.156919625249884	-94.16664221754797	-39.29522270987437	-94.16664221754782	279.852833012331	
1.2144862243233676	117.03993469437738	107.31604089674664	-25.55792842858814	107.31604089674698	83.13079448238227	-97.50302597074484	-25.557928428588134	-97.50302597074469	303.4117257950213	
1.2672899732069922	103.06058451184927	101.02724407869778	-10.767991091702147	101.02724407869816	115.07515721811598	-100.09168862935024	-10.767991091702187	-100.09168862935005	328.3540348763174	
1.320093722090617	91.3427573958468	84.3290109108395	3.774967350062737	84.32901091083991	147.26058803744982	-100.22802787610513	3.7749673500626333	-100.22802787610487	353.47268244211733	
1.3728974709742416	81.11455513421163	59.838378073731214	16.336424337711165	59.83837807373164	178.51590520498553	-96.39332900853107	16.336424337710998	-96.39332900853074	377.25583544910836	
1.4257012198578662	72.52494907610006	31.38349739757966	25.113795553442174	31.383497397580044	207.3590223968604	-87.58056384330159	25.113795553441935	-87.58056384330119	397.834437484081	
1.478504968741491	66.67978018599227	3.260261660056834	28.63930146156217	3.2602616600571253	232.47589205616498	-73.54437544483619	28.63930146156187	-73.54437544483574	413.0481388775174	
1.5313087176251157	65.30557966749073	-20.735830717632936	26.178714044639552	-20.735830717632677	252.74671288970654	-54.8886945905645	26.17871404463922	-54.88869459056402	420.69461072013013	
1.5841124665087403	70.03617206526602	-38.013964696991955	18.058564260966044	-38.01396469699175	267.8532717176552	-32.98856496578513	18.05856426096572	-32.98856496578465	418.9262543905402	
1.636916215392365	81.86559366702403	-47.78313882939846	5.745630163371683	-47.78313882939833	278.04817662276696	-9.794448899092968	5.745630163371352	-9.794448899092492	406.63778040877514	
1.6897199642759897	100.90720608021763	-51.08386377689425	-8.359597107831359	-51.08386377689417	284.6954444986178	12.519473783956116	-8.359597107831652	12.519473783956572	383.6894590339248	
1.7425237131596143	126.40912854227743	-50.331068840570495	-21.401169667092567	-50.33106884057038	290.14554111105787	31.890468206754214	-21.40116966709279	31.89046820675465	350.92830209460084	
1.7953274620432391	157.4406312374927	-48.61141361552978	-30.722096419269647	-48.61141361552965	297.59863772310837	46.651053794809584	-30.72209641926979	46.651053794810025	310.09073497890887	
1.8481312109268637	193.20734241814546	-48.59521683982547	-34.41749362731784	-48.595216839825284	310.78524731626237	55.768419470372834	-34.41749362731791	55.76841947037329	263.6776404780578	
1.9009349598104883	233.67016092204892	-51.762483642492946	-31.66679990119635	-51.7624836424927	333.3836724286218	58.89093035411862	-31.666799901196363	58.89093035411911	214.8448279239632	
1.9537387086941131	279.08420408176994	-57.77975349783268	-22.770131201759586	-57.77975349783238	367.8761636515811	56.31061075998485	-22.77013120175957	56.31061075998536	167.2978071432525	
2.006542457577738	329.95194757741575	-64.6860552560969	-8.858555789491248	-64.6860552560966	414.9296844178685	48.85039035926702	-8.858555789491216	48.85039035926755	125.07121554790162	
2.0593462064613623	385.88621549645995	-69.36108355909482	8.501223334197565	-69.3610835590945	472.4724533510168	37.74199727851567	8.501223334197611	37.7419972785162	92.08461124639696	
2.112149955344987	445.3102903269202	-68.55176141315148	27.642928961472975	-68.55176141315113	535.856818700698	24.53429607906843	27.64292896147301	24.534296079068934	71.39616371641577	
2.164953704228612	504.99461989816575	-59.62698581022073	47.00294415475952	-59.626985810220454	598.1979097038827	10.965963492898972	47.00294415475953	10.96596349289944	64.43527080775647	
2.2177574531122364	560.3302068157311	-41.636012266360275	65.13375143364543	-41.63601226636004	651.8003423239761	-1.2807368078711643	65.13375143364543	-1.280736807870757	70.50669881242973	
2.270561201995861	606.1734612666792	-15.574377671944394	80.62806050851438	-15.574377671944216	689.674253365568	-10.916601374764198	80.62806050851437	-10.916601374763836	86.7634059153276	
2.323364950879486	637.7195111527601	15.551510144230626	92.10006588130459	15.55151014423074	707.0427897848768	-17.420580442824384	92.1000658813046	-17.420580442824058	108.75394478694551	
2.3761686997631104	651.5049523077272	47.54234186131483	98.30644424904077	47.54234186131491	702.3495949803448	-21.276798737063576	98.30644424904074	-21.276798737063285	131.43273265700196	
2.4289724486467352	645.7806223701112	75.77327748522123	98.38800808386989	75.77327748522127	677.3233035261093	-23.939712567877653	98.38800808386992	-23.939712567877365	150.2804687983951	
2.48177619753036	620.5348630112929	96.56793033203934	92.18436199700892	96.56793033203934	636.2320955897218	-27.42311112186517	92.18436199700895	-27.42311112186487	162.1748212103403	
2.5345799464139844	577.278861936726	107.87426950188745	80.50732858746427	107.87426950188744	584.2752087062274	-33.64452877369948	80.50732858746436	-33.644528773699165	165.77263700259888	
2.5873836952976093	518.569766201276	109.7628491810072	65.23792992038858	109.76284918100713	526.3740263484817	-43.70090048176635	65.23792992038871	-43.70090048176603	161.3854897270372	
2.640187444181234	447.6920713379016	103.9634564367011	49.204942111407256	103.963456436701	466.0169042170128	-57.34928377151971	49.20494211140741	-57.349283771519374	150.50213360534144	
2.6929911930648585	368.7989467730588	93.16011292806482	35.79211974833107	93.16011292806476	405.3419063859062	-72.89149959170464	35.792119748331245	-72.8914995917043	135.23859349818795	
2.7457949419484833	286.8038163130441	79.83985468666438	28.337593379396658	79.8398546866643	345.6296018177221	-87.56667562167664	28.33759337939688	-87.5666756216763	117.86373426949831	
2.798598690832108	207.28091702895318	65.5667655160058	29.463434717205484	65.56676551600573	288.3784820357772	-98.25672426019707	29.463434717205683	-98.25672426019673	100.50523354807767	
2.8514024397157325	135.92937252164396	50.67624162364329	40.486257210876985	50.67624162364323	235.95571745596965	-102.3691345998175	40.48625721087721	-102.3691345998172	85.00318098187174	
2.9042061885993573	77.9762460806467	34.52068992716845	61.132310887577695	34.5206899271684	192.07667696275308	-98.5213207963476	61.13231088757787	-98.52132079634733	72.84696279869706	
2.957009937482982	37.15215371548563	16.19328872610619	89.58204850685867	16.193288726106175	161.02920969447976	-86.85110010286374	89.58204850685883	-86.8511001028635	65.10166188009272	
3.0098136863666065	15.190299661930894	-4.6089990258487	122.83816068543175	-4.608999025848732	146.28428075313917	-68.81443779157618	122.83816068543187	-68.81443779157598	62.24637347599124	
3.0626174352502313	11.226847175816573	-27.128417764104206	157.33161637885536	-27.128417764104185	149.47618918588	-46.66379579308077	157.33161637885547	-46.663795793080624	64.04283726565808	
3.115421184133856	21.91280978799753	-49.39787785333656	189.52368643947497	-49.39787785333654	168.67898533458083	-22.791525547404746	189.52368643947506	-22.79152554740464	69.51517424511763	
3.1682249330174805	41.71386820619675	-68.72712295030834	216.3535476976144	-68.7271229503083	198.4948426592389	0.7601140728544902	216.35354769761443	0.7601140728545506	77.1046067296503	
3.2210286819011054	63.87142431354118	-82.33037209568305	235.4252179623682	-82.330372095683	230.56302884969037	22.510604089920985	235.42521796236827	22.51060408992101	84.9920392928711	
3.27383243078473	81.45064241973009	-88.21470678395863	244.970452547765	-88.21470678395859	255.39058577483618	41.47631610105727	244.9704525477651	41.476316101057265	91.57195897710814	
3.3266361796683546	88.66977365981516	-85.83396774141481	243.6859513132311	-85.8339677414148	264.30561341281725	56.99939299178371	243.6859513132311	56.999392991783665	95.82892190322356	
3.3794399285519794	81.94709715810095	-76.31449912429078	230.7089942987635	-76.31449912429082	251.72316263754664	68.62938269824423	230.7089942987635	68.62938269824419	97.65476398154647	
3.432243677435604	60.45258492786961	-62.28278272198682	205.75783864203208	-62.282782721986834	216.20761084161674	76.10775195945453	205.75783864203214	76.10775195945448	97.90982171462838	
3.4850474263192286	26.33971754781114	-47.32239911552996	169.45380719999264	-47.322399115530004	160.968804012234	79.52474632966232	169.45380719999264	79.52474632966226	98.20235832034392	
3.5378511752028534	-16.33729059467256	-35.013771335122634	123.71146196223049	-35.013771335122705	92.86759500642262	79.44913268150353	123.71146196223052	79.44913268150347	100.39941250487198	
3.5906549240864782	-62.34274329357142	-28.3332920175176	71.94497677580412	-28.333292017517707	20.780426318857955	76.88686464882622	71.94497677580418	76.88686464882618	106.07561934498271	
3.6434586729701026	-106.76095569259817	-28.840049830127086	18.902086619442915	-28.84004983012719	-46.63466158951539	73.12827946686092	18.902086619442947	73.12827946686086	116.08927263292631	
3.6962624218537274	-145.4596324899883	-36.73120194831254	-29.925121726758725	-36.73120194831269	-102.58900857320552	69.47833812865905	-29.92512172675871	69.47833812865902	130.46526916320875	
3.7490661707373523	-175.82168371828024	-50.64671517353124	-69.24631581857949	-50.646715173531426	-143.58017640675038	67.0074903188054	-69.24631581857946	67.00749031880532	148.63113903700543	
3.8018699196209766	-196.3905932626035	-68.2734745841684	-94.99980974810198	-68.27347458416861	-169.36813059948335	66.35081191993855	-94.999809748102	66.35081191993851	169.90767335577195	
3.8546736685046015	-206.86649752022686	-86.74915560228808	-105.15318593315843	-86.74915560228828	-182.45502344446885	67.6116774529189	-105.1531859331585	67.61167745291887	193.9862032607365	
3.9074774173882263	-207.74944168245534	-103.28037929734788	-100.03033788003353	-103.28037929734813	-186.79232077781847	70.38034463677573	-100.03033788003361	70.38034463677573	220.99613334153588	
3.9602811662718507	-200.19885106229898	-115.32208883665989	-82.09426105416259	-115.32208883666011	-186.48470760327928	73.8028969155641	-82.09426105416267	73.80289691556412	251.1047605144362	
4.013084915155476	-185.84209660587533	-121.12127330624574	-55.264076636215655	-121.12127330624594	-184.8013193725769	76.71103647121704	-55.264076636215826	76.71103647121706	283.78401180565817	
4.0658886640391	-166.42260512725312	-119.69790098165456	-24.08259541767308	-119.69790098165473	-183.41343097035784	77.82354491048	-24.08259541767327	77.82354491048005	317.087109844764	
4.118692412922725	-143.61952021707322	-111.12235852385972	7.039682490094329	-111.12235852385987	-182.67660740188774	75.98455497276336	7.039682490094112	75.98455497276345	347.36135922731364	
4.17149616180635	-118.108983797284	-96.36103737864254	34.39492475873898	-96.36103737864265	-181.76605409779253	70.44864928370157	34.39492475873873	70.44864928370167	369.59006329077005	
4.224299910689974	-89.78697175362578	-77.34756928310829	55.322674678653385	-77.34756928310838	-178.93961171009985	61.11734936055903	55.32267467865314	61.117349360559174	378.376611784851	
4.277103659573599	-57.60858481327639	-56.54491735452917	68.42314862556327	-56.54491735452923	-172.09027761584994	48.767085360986485	68.42314862556299	48.767085360986634	369.2685963796045	
4.329907408457224	-20.21375109987062	-36.68453585879442	73.68350049414848	-36.68453585879449	-158.97023518960964	35.11630728084154	73.68350049414816	35.11630728084172	339.9247802018589	
4.382711157340848	23.333744498398374	-19.984284323408133	72.4426359538855	-19.98428432340819	-137.2524591603303	22.70832475638699	72.4426359538852	22.708324756387192	290.84596811438524	
4.435514906224473	72.76152082714158	-7.814581158710752	67.12368248059741	-7.8145811587108085	-105.01821915026488	14.572430548186407	67.12368248059711	14.572430548186627	225.51478472605987	
4.488318655108098	126.60193898720158	-0.33498044940935756	60.686406516609054	-0.3349804494094002	-60.86149022865388	13.646259946396395	60.68640651660877	13.646259946396636	149.9651696883983	
4.541122403991722	182.16250277056628	3.315145942030938	55.87609973269636	3.315145942030938	-4.354127473099567	21.988708726145088	55.87609973269609	21.988708726145383	71.9585110690671	
4.593926152875347	236.29611838374615	4.599924434172877	54.52465093117338	4.599924434172905	63.68024587810569	40.00608582243901	54.524650931173134	40.00608582243931	-0.0820219040918495	
4.646729901758972	285.7896854097677	4.884788337383894	57.12878779278156	4.884788337383849	140.82437884258346	65.97664653083652	57.12878779278131	65.97664653083683	-58.2181084555656	
4.699533650642596	328.3693895300716	4.821938768280546	62.89539638311368	4.821938768280475	223.273071224264	96.13873945886264	62.89539638311345	96.13873945886299	-96.1124899157671	
4.752337399526221	362.76076356178885	4.157222031456328	70.21738728645064	4.1572220314562855	306.29388683804643	125.37575534678027	70.21738728645045	125.37575534678061	-109.9698014478099	
4.805141148409846	388.8530974069155	1.809837530035594	77.35079628697845	1.8098375300354803	384.7819190616154	148.39865777895193	77.35079628697825	148.39865777895233	-99.24538403919726	
4.8579448972934705	407.2261041032387	-3.4335166978447376	83.02240366330086	-3.4335166978448797	454.3039670677516	161.09140034853982	83.02240366330068	161.0914003485402	-66.84850498513084	
4.910748646177095	418.57202991130976	-12.328107148438434	86.745620771218	-12.328107148438612	511.57864423353277	161.5192963276195	86.74562077121782	161.51929632761983	-18.75164737107609	
4.96355239506072	423.34256631384994	-24.509416270508236	88.76609001840649	-24.50941627050847	555.0546992303154	150.31819232677756	88.7660900184063	150.31819232677796	37.07763171529359	
5.0163561439443445	421.17198816495215	-38.19828569362044	89.73974093552116	-38.19828569362065	584.5764592403061	130.33920012329312	89.73974093552101	130.33920012329352	92.19961001584343	
5.069159892827969	411.18306109763625	-50.52382254459294	90.35153599776797	-50.523822544593216	601.1294680696956	105.68741318947652	90.35153599776783	105.6874131894769	139.39109810071875	
5.121963641711594	392.42060396289276	-58.13330636777999	91.02120669532201	-58.13330636778031	606.2323689151816	80.57231333081461	91.02120669532192	80.57231333081496	173.9611330710759	
5.1747673905952185	364.27264155401673	-58.1023718588765	91.85165381761684	-58.10237185887679	601.3493640793843	58.28957155280085	91.85165381761678	58.28957155280116	194.38898562317445	
5.227571139478843	326.9455205829782	-48.94288482655088	92.74120309416557	-48.94288482655119	587.4470776096131	40.656450998074476	92.74120309416558	40.656450998074746	202.1003621926478	
5.280374888362468	281.55375593584705	-31.189857670581453	93.5453324149893	-31.189857670581787	565.0622331268067	27.954477730414684	93.54533241498936	27.954477730414894	200.57530179463555	
5.3331786372460925	229.67558324362187	-7.475827284152043	94.18400040568652	-7.475827284152299	534.1666231511492	19.29794901265319	94.1840004056866	19.297949012653326	194.10070213673146	
5.385982386129717	173.35066310940695	17.955901553755375	94.68588918008112	17.955901553755176	494.6757808130101	13.219702604957668	94.68588918008126	13.219702604957732	186.63699234380624	
5.438786135013342	114.513950058106	40.41427405900389	95.09999060564486	40.414274059003766	446.75356712306103	8.227979816963249	95.09999060564508	8.227979816963252	181.04392813525638	
5.491589883896967	55.59148169392742	55.725803364001415	95.39396784806014	55.72580336400138	391.0248747876989	3.19560215296078	95.3939678480604	3.1956021529607312	178.81360467446746	
5.544393632780591	-0.8659863483317509	61.33462334147497	95.45549265350488	61.33462334147499	328.5979748528923	-2.4721065675794325	95.45549265350516	-2.4721065675795	180.17810725470744	
