# Stress in units of bar (10^5 Pa)
# z	Sxx	Sxy	Sxz	Syx	Syy	Syz	Szx	Szy	Szz
0.0	-191.9896755996929	55.02218053236824	80.53742497641471	55.022180532366974	211.78313279455585	-64.44660712317318	80.53742497641538	-64.44660712317307	145.10408123054052	
0.05533585275722738	-177.78516584814167	63.381262909417	88.5492585922309	63.38126290941594	194.52356527305267	-71.5561907849735	88.54925859223157	-71.55619078497341	129.14093200086052	
0.11067170551445477	-155.0531033331599	65.10332800976296	94.87205167811754	65.10332800976208	181.29993953943477	-73.86031386966265	94.87205167811821	-73.86031386966259	115.44463210805166	
0.16600755827168215	-129.95958972376587	63.022467576165006	100.00237775177627	63.022467576164246	172.79908790470276	-71.86060702458647	100.0023777517769	-71.86060702458647	104.69039275165112	
0.22134341102890953	-108.7367423897858	60.02245876761258	104.58944098282669	60.02245876761193	168.2043151135901	-66.7379407167668	104.58944098282731	-66.73794071676681	97.4801796005349	
0.27667926378613694	-96.30304223488051	58.37358131519848	109.21906159281379	58.37358131519791	165.76148030741297	-59.966871338826095	109.21906159281437	-59.96687133882614	94.23972962396684	
0.3320151165433643	-95.31544508794795	59.167294885778574	114.21478126162967	59.16729488577804	163.23451619293712	-52.873372102792985	114.21478126163018	-52.87337210279308	95.089182547279	
0.38735096930059165	-105.92599513630242	62.33041715176195	119.50830473609743	62.33041715176142	158.46623729606353	-46.232306960141294	119.50830473609786	-46.23230696014145	99.71972156799433	
0.44268682205781906	-126.3912186501999	66.83495614619297	124.61487572843956	66.83495614619243	149.87785695655396	-40.07638987316525	124.61487572843984	-40.07638987316551	107.34981282664704	
0.4980226748150465	-153.91371189525444	71.20973742683059	128.79170558714588	71.20973742683013	136.13518105449708	-33.740451057027016	128.79170558714605	-33.74045105702737	116.80713713323544	
0.5533585275722739	-185.60809990974425	74.22852524328148	131.292119315067	74.2285252432811	116.02633893906814	-26.129587251210204	131.292119315067	-26.129587251210676	126.69599015312821	
0.6086943803295012	-219.35500572668587	75.30517021615165	131.65994679133172	75.3051702161514	88.09716285653585	-16.14344900410656	131.65994679133155	-16.143449004107147	135.65275320288063	
0.6640302330867286	-253.66908199864417	74.61535018134825	129.98444036625114	74.61535018134818	50.883768542309156	-3.098639298814902	129.98444036625085	-3.0986392988155878	142.59580386432754	
0.719366085843956	-287.66640659118593	72.96265257235008	126.94602229923535	72.96265257235024	3.4463168717032335	12.962649645767684	126.94602229923494	12.962649645766923	146.92610092222176	
0.7747019386011833	-320.4297051051767	71.37827272559967	123.67073626800614	71.37827272560001	-53.859690499849975	31.14542697749853	123.6707362680057	31.145426977497724	148.66612406170535	
0.8300377913584107	-350.510277061581	70.4707875888768	121.41109450891608	70.47078758887731	-118.79652561992174	49.78373700514251	121.41109450891565	49.78373700514166	148.5089654372121	
0.8853736441156381	-375.544216862762	70.23948981278063	121.16862674877967	70.23948981278122	-187.14692989949123	66.71252396910042	121.1686267487793	66.71252396909955	147.73371779067747	
0.9407094968728655	-392.52486584126905	69.90015738275682	123.3346526594253	69.90015738275743	-253.16297128694748	79.67400276888482	123.33465265942503	79.67400276888395	148.03523968993346	
0.996045349630093	-398.0471356813817	68.06671533325408	127.54330848896252	68.06671533325459	-310.72774197477344	86.74316191708249	127.54330848896241	86.74316191708164	151.23099573009355	
1.0513812023873204	-389.28742527492034	63.27142708522481	132.71705515009347	63.27142708522519	-354.4046366061668	86.755811391204	132.71705515009353	86.75581139120317	158.90529085425794	
1.1067170551445478	-364.6199298995809	54.34038091341063	137.31480122964734	54.3403809134108	-380.3865019212803	79.58549408626764	137.31480122964751	79.58549408626682	172.03058615649093	
1.162052907901775	-324.27016738519865	40.795293496431995	139.69551399945254	40.79529349643198	-386.88631472165093	66.24110798076129	139.69551399945283	66.24110798076049	190.6723043895589	
1.2173887606590024	-270.3867694788049	22.993671572165436	138.45313988268447	22.99367157216523	-373.9316738466214	48.6946363213223	138.4531398826848	48.69463632132152	213.85963265987175	
1.2727246134162298	-206.77485242750294	2.1425861920768803	132.67379014057747	2.142586192076525	-342.943321785107	29.531717468876188	132.67379014057778	29.531717468875428	239.69426925541373	
1.3280604661734572	-137.70243891177023	-19.921527956622448	122.07406183718822	-19.921527956622853	-296.0419047100318	11.41803563369782	122.07406183718851	11.418035633697087	265.77601842288993	
1.3833963189306846	-66.9170809487858	-40.96776927368971	107.03329372569067	-40.967769273690195	-235.46541461254282	-3.4568529574221785	107.03329372569087	-3.456852957422875	289.73274786473985	
1.438732171687912	3.117422742524937	-58.56234395420078	88.53289683465808	-58.56234395420121	-163.46481044750882	-13.826105527907425	88.53289683465816	-13.826105527908071	309.8477580907175	
1.4940680244451394	71.86768753187204	-70.55380585361604	68.02895342205505	-70.55380585361644	-81.71581952201478	-19.533533745069978	68.02895342205501	-19.53353374507056	325.4761885776824	
1.5494038772023666	140.41491075438665	-75.37801825198898	47.27633745708924	-75.37801825198927	8.396872160603063	-21.534036049248776	47.276337457089056	-21.534036049249288	337.1534119175594	
1.604739729959594	210.67597582680102	-72.4231396312434	28.052154833660577	-72.42313963124361	105.8432991742078	-21.586278100801028	28.052154833660303	-21.586278100801472	346.3330985054155	
1.6600755827168214	284.4926116479511	-62.19557346613314	11.82275951875133	-62.1955734661333	209.34032857958633	-21.74959490323876	11.822759518751013	-21.74959490323914	354.83783712209737	
1.7154114354740488	362.65436759644365	-46.30968269503319	-0.5772238788552286	-46.30968269503332	317.20383080556246	-23.773151785974985	-0.5772238788555519	-23.773151785975323	364.2077720087883	
1.7707472882312763	444.3853666400537	-27.147494062195946	-9.160090144691022	-27.147494062196063	426.8166396674293	-28.532193252903866	-9.16009014469132	-28.532193252904143	375.1611348870955	
1.8260831409885037	526.9313733520898	-7.350234259737572	-14.74657155716767	-7.350234259737714	534.1775303903183	-35.72170225058135	-14.74657155716794	-35.721702250581615	387.3359972886954	
1.881418993745731	606.1824783107368	10.826806624588116	-18.706116040115578	10.826806624587967	634.1089384478571	-43.88135188206182	-18.706116040115813	-43.88135188206208	399.271568259329	
1.9367548465029585	677.115113345402	25.851557610555147	-22.5124009923483	25.851557610555012	720.7358505053696	-50.80336222244051	-22.51240099234849	-50.803362222440796	408.65006999958064	
1.992090699260186	734.6718186275511	36.989241081660666	-27.277703715874907	36.9892410816605	788.0956484431536	-54.235918223770256	-27.27770371587507	-54.23591822377057	412.60371481068177	
2.0474265520174133	774.5089083016953	44.191953858584824	-33.438492054879475	44.19195385858472	831.2319699469458	-52.599325815170474	-33.43849205487963	-52.5993258151708	408.1638403713764	
2.1027624047746407	793.4791299548365	47.500048925409665	-40.64715778564873	47.50004892540956	846.5856883391342	-45.478915299082914	-40.647157785648915	-45.47891529908328	392.8058940053062	
2.158098257531868	789.895507316414	46.88032123062453	-47.92063009714204	46.880321230624475	832.776495691178	-33.688360375022896	-47.92063009714225	-33.68836037502328	365.11456089588205	
2.2134341102890955	763.5367347444701	42.05649381758464	-53.91750018930513	42.05649381758461	790.5842789047556	-18.911987482554736	-53.91750018930537	-18.911987482555155	325.43974614958876	
2.2687699630463225	715.6194926277201	32.73510603801384	-57.28691075514887	32.73510603801384	722.8871572608621	-3.1498347669782447	-57.28691075514915	-3.1498347669786426	276.25764913231734	
2.32410581580355	648.6243555040156	19.0716616748242	-57.01096904014187	19.071661674824213	634.3757347139485	11.82425025810322	-57.01096904014218	11.824250258102822	221.9869629169255	
2.3794416685607773	566.1608825825765	2.0228659455285083	-52.607852484482606	2.022865945528565	531.1920602443827	24.72674395403578	-52.60785248448294	24.726743954035413	168.2120585732383	
2.4347775213180047	473.1181106569694	-16.515918590813786	-44.21431828480873	-16.51591859081369	420.46683344290716	34.694721856501886	-44.21431828480908	34.694721856501566	120.46060679849131	
2.490113374075232	375.22825975710145	-34.08111110873381	-32.542675382422516	-34.08111110873371	309.9101627144116	41.006256064215506	-32.54267538242286	41.00625606421523	82.966489518015	
2.5454492268324596	278.8303543734113	-48.279164123591116	-18.633881398466112	-48.27916412359103	207.25948841479797	42.8079984240474	-18.633881398466443	42.80799842404719	57.83657933699323	
2.600785079589687	189.93189411920292	-57.518435336120135	-3.6327151657120016	-57.51843533612003	119.6641690971217	39.031542060992706	-3.6327151657122965	39.031542060992564	44.803902130077766	
2.6561209323469144	113.44524416595098	-61.42256006054721	11.416089615205038	-61.4225600605471	52.67510123595338	28.666211561632302	11.416089615204775	28.666211561632192	41.615570267705166	
2.711456785104142	52.2806148923509	-60.823228160880625	25.62098730564275	-60.82322816088053	9.409587435220558	11.206472753984045	25.620987305642537	11.206472753983999	44.79580065292105	
2.766792637861369	6.86130274335558	-57.1852286245111	38.258419184514054	-57.185228624511	-10.067097213031857	-12.864247894101787	38.258419184513876	-12.864247894101823	50.48072486199998	
2.8221284906185966	-24.875376817078372	-51.96142216967399	48.72649647628445	-51.96142216967391	-8.836839251934414	-41.726179648047875	48.72649647628431	-41.72617964804789	55.12167504312373	
2.877464343375824	-46.76007110381435	-46.02371457026686	56.51740566700497	-46.023714570266776	7.461363539304864	-72.2630421033887	56.51740566700486	-72.2630421033887	56.01630454315534	
2.9328001961330514	-63.57710035327894	-39.516346085618366	61.30892794506795	-39.51634608561831	31.876683681787874	-100.47270456590114	61.30892794506785	-100.47270456590113	51.689017018615786	
2.988136048890279	-79.73316850816923	-32.040035617453945	63.05047399764522	-32.04003561745393	57.41374159408668	-122.23840558798642	63.050473997645156	-122.23840558798639	42.202970775128335	
3.0434719016475063	-98.24858620843177	-23.214002977418115	62.004606021205845	-23.21400297741808	78.27743033796105	-134.2616209123022	62.00460602120579	-134.26162091230216	29.270646060754345	
3.098807754404733	-120.05290272058201	-12.966946688688274	58.665526744882946	-12.966946688688292	90.5416526031338	-134.83897779518205	58.66552674488291	-134.838977795182	16.059488533508016	
3.1541436071619606	-144.24874786149266	-1.8419204143475496	53.59132858599618	-1.841920414347587	92.16571628765176	-124.23388357408069	53.59132858599614	-124.23388357408066	6.540111728817639	
3.209479459919188	-168.51194976661583	9.27782324261463	47.2328843278375	9.277823242614588	82.67042942335478	-104.5290332956359	47.232884327837496	-104.52903329563587	4.592416694030675	
3.2648153126764154	-190.18850529702107	19.359776360300135	39.87558061249283	19.359776360300074	63.16455615055843	-79.03395151869614	39.87558061249284	-79.03395151869609	12.966658348629252	
3.320151165433643	-207.43017062049566	27.73675639392638	31.742088246516797	27.73675639392632	35.684668148366924	-51.49974040737225	31.742088246516815	-51.49974040737221	32.51970585992663	
3.3754870181908703	-219.57491275976355	34.25553700922798	23.167159915618434	34.255537009227886	3.6941605030647615	-25.341342968645012	23.167159915618466	-25.341342968644962	61.986641893654664	
3.4308228709480977	-227.01748852188325	39.17747233404402	14.779490235863477	39.177472334043905	-28.557628215503073	-3.1959050154110606	14.779490235863522	-3.195905015411004	98.40645916258211	
3.486158723705325	-230.63474328018793	42.912049357689924	7.476719106639667	42.9120493576898	-56.11894931345125	13.313388344873353	7.476719106639713	13.313388344873406	138.01105997972138	
3.5414945764625525	-230.90848319702792	45.6905982228308	2.266474579896549	45.69059822283066	-74.6594834865444	23.57023738869645	2.266474579896613	23.570237388696516	177.1909266940002	
3.59683042921978	-227.2786342457356	47.22910989736361	-0.03405015102388376	47.22910989736346	-81.18440612752643	27.91798386909593	-0.03405015102383757	27.91798386909601	213.23260307648266	
3.6521662819770073	-218.21834000937596	46.741931324456985	0.8640174954854007	46.74193132445686	-74.98087232317484	27.59566727768435	0.8640174954854509	27.59566727768443	244.57154970998502	
3.7075021347342347	-201.75714442891143	43.144000127386775	4.559570826887821	43.14400012738666	-57.93965754493918	24.605435813562686	4.55957082688785	24.605435813562778	270.6286798273741	
3.762837987491462	-176.52641027712014	35.68446599654907	10.015230465818696	35.68446599654898	-34.27107630984357	21.41290968246546	10.015230465818725	21.412909682465553	291.42664780360707	
3.8181738402486896	-142.45232525564492	24.476311233573966	15.817920144754499	24.476311233573895	-9.496232693205627	20.504427468280117	15.817920144754538	20.504427468280202	307.3588912247104	
3.873509693005917	-101.10427042596959	10.754739765601023	20.53928777022678	10.754739765600988	10.900654179996195	23.804282564288513	20.539287770226824	23.804282564288606	319.1893886859227	
3.9288455457631444	-55.552168994876354	-3.0536669609823406	23.067679863954588	-3.0536669609823406	22.7833255490155	32.15643910638721	23.067679863954634	32.156439106387296	328.2546647079861	
3.984181398520372	-9.56267923570644	-13.993238222910279	22.841182878887807	-13.993238222910271	24.296106294685547	45.09290363022071	22.841182878887857	45.092903630220775	336.5970985486974	
4.039517251277599	32.98790466645079	-19.457884369565843	19.832051943022783	-19.457884369565797	16.288762279415728	60.91619372506889	19.83205194302284	60.91619372506895	346.77017319689185	
4.094853104034827	68.8144127679959	-17.824237884930916	14.395444023996856	-17.824237884930866	1.7857796937787356	77.16061352938844	14.395444023996909	77.16061352938848	361.3179210027594	
4.150188956792054	95.49389840593646	-8.785067337125298	7.041659211461082	-8.785067337125227	-15.494173872494514	91.19059451868603	7.041659211461136	91.19059451868608	382.0080243417544	
4.205524809549281	111.87514213868546	5.90870596595191	-1.7286494969300357	5.908705965951995	-31.1711261748643	100.83415059448305	-1.7286494969299895	100.83415059448308	409.1745543675566	
4.260860662306508	118.0859271852363	23.073055477691053	-11.46721489432855	23.07305547769112	-41.53879697742357	104.8392798641414	-11.467214894328517	104.83927986414142	441.4871609368183	
4.316196515063736	115.31138511761026	39.51872874214258	-21.745137441485127	39.51872874214264	-45.70105440421926	103.09834937014719	-21.74513744148511	103.09834937014719	476.3152791132927	
4.371532367820963	106.39832003960825	51.69230213366117	-32.042140897955875	51.692302133661215	-43.33176874028845	96.61568372143276	-32.04214089795587	96.61568372143273	510.5131896926191	
4.426868220578191	95.69477990168257	56.92421997609401	-41.696290203071726	56.92421997609404	-35.106644516991395	87.27734111993732	-41.69629020307173	87.27734111993728	541.3661695767667	
4.482204073335418	88.57905587307124	53.791253911396005	-50.04877894129291	53.791253911396	-21.83983633402798	77.50540444631562	-50.04877894129292	77.50540444631554	567.2588070411191	
4.537539926092645	90.50810421669956	42.641999556368425	-56.566059223708976	42.64199955636837	-4.560902299020029	69.94464043424406	-56.56605922370897	69.94464043424394	587.8405382611174	
4.592875778849873	105.87485640024153	25.928723872939806	-61.0961571577537	25.928723872939734	14.81349618493826	67.12463726076894	-61.09615715775368	67.12463726076878	603.705404449166	
4.6482116316071	136.52007615849718	8.132894849285353	-63.926054567211196	8.132894849285176	32.89250290856302	71.13262554635362	-63.926054567211146	71.13262554635341	615.7174791624948	
4.703547484364328	181.053945959341	-4.899696962664152	-65.61975525423436	-4.899696962664368	44.74937669508395	83.32835666649514	-65.61975525423433	83.32835666649486	624.3000311151503	
4.758883337121555	235.1192588101452	-7.560441794583362	-66.79549940758552	-7.560441794583667	45.50536074762225	104.03704076090119	-66.79549940758548	104.03704076090087	629.0097960140936	
4.8142191898787825	292.2388345542754	3.3872908474561285	-67.82384204416618	3.3872908474556667	33.219378465064054	132.34562790477156	-67.82384204416616	132.34562790477113	628.5091388182472	
4.8695550426360095	345.85833121093543	26.95418437975377	-68.67028917751665	26.95418437975303	11.760154991667719	166.0717032813337	-68.67028917751665	166.07170328133324	620.9306435686963	
4.924890895393237	390.61838607955553	57.17046952798563	-68.94900491571809	57.170469527984835	-8.645298963718119	201.8590603537317	-68.94900491571813	201.8590603537312	604.4946318620104	
4.980226748150464	423.3883486409128	84.49070404303359	-68.13395757711353	84.49070404303279	-13.789026969219435	235.51933698673676	-68.13395757711362	235.51933698673625	578.1110846416173	
5.035562600907692	443.30075739412007	98.81519531599108	-65.84898366955426	98.81519531599028	9.030747856204812	262.5336718255309	-65.84898366955437	262.53367182553046	541.7959164430938	
5.090898453664919	451.1028152575325	93.12145937918666	-62.062631021595834	93.1214593791854	64.97202073075754	278.6621082245249	-62.062631021596005	278.66210822452456	496.8174157158043	
5.146234306422147	448.37824636922085	66.24092272296946	-57.136471451567544	66.24092272296866	148.25722826312972	280.6096435002713	-57.13647145156774	280.6096435002711	445.5856097358195	
5.201570159179374	437.13468730322535	23.170234087234917	-51.66663485093925	23.17023408723378	243.10859732590325	266.6769999690074	-51.66663485093946	266.6769999690073	391.34344130719194	
5.256906011936602	419.5210967164454	-26.699951705862176	-46.27548939818631	-26.699951705863285	328.8112019873169	237.2601673519854	-46.27548939818652	237.26016735198544	337.70032823685096	
5.312241864693829	397.82762832092567	-72.91860930732115	-41.41893199224982	-72.91860930732197	386.6630917573874	195.00273964672283	-41.41893199225	195.00273964672306	288.15756369222015	
5.367577717451056	374.4571614043821	-107.21319378366773	-37.36087654302673	-107.21319378366864	405.49448339514436	144.52214593074433	-37.36087654302686	144.5221459307446	245.6393525646279	
5.422913570208284	351.5255408592547	-125.50633554406959	-34.2602481666011	-125.50633554407028	383.70811991753675	91.6224380475708	-34.2602481666012	91.62243804757115	212.0591163400776	
5.4782494229655105	330.85455896400845	-128.14554479349033	-32.34940464023195	-128.1455447934909	328.10917473120367	42.16149705961871	-32.34940464023201	42.16149705961913	188.06891541735203	
5.533585275722738	313.4509478477121	-118.80262601628509	-32.10896881886136	-118.8026260162855	250.15259418946593	0.8524069800628524	-32.10896881886137	0.8524069800632716	173.09002417375768	
5.588921128479965	299.86119469049453	-102.65458538695728	-34.31331185140854	-102.65458538695765	162.3861290325368	-29.57958833434094	-34.313311851408535	-29.579588334340485	165.60385420629729	
5.644256981237193	289.982392886898	-84.47919486683469	-39.853710145167064	-84.47919486683494	75.6820547936218	-48.695281298980895	-39.85371014516702	-48.695281298980454	163.71286703508986	
5.69959283399442	283.3269593451537	-67.52040039958098	-49.41133427174047	-67.52040039958113	-1.9335097282702467	-57.983747273447136	-49.41133427174041	-57.98374727344668	165.78454113976787	
5.754928686751648	279.1172919445603	-52.914075684283176	-63.0915225287576	-52.91407568428328	-65.36905138653498	-60.06557051531975	-63.09152252875754	-60.06557051531929	170.95381471820247	
