# Stress in units of bar (10^5 Pa)
# z	Sxx	Sxy	Sxz	Syx	Syy	Syz	Szx	Szy	Szz
0.0	-261.113305637665	98.3616794394537	90.4763464136872	98.3616794394523	198.1006337497908	-87.64084778001858	90.47634641368782	-87.64084778001842	139.70461660744482	
0.05533585275722738	-222.86619448768056	94.34754085030636	97.07530597503134	94.3475408503053	166.92084424536597	-96.63471705912096	97.07530597503195	-96.63471705912093	121.79436996042458	
0.11067170551445477	-164.923758768853	78.49309634592447	100.4763168784347	78.49309634592373	149.1376095699474	-95.46832566814905	100.47631687843531	-95.46832566814909	105.5871664136176	
0.16600755827168215	-102.8499694433738	58.93372687283744	101.71441113206701	58.933726872837	147.4855340377294	-85.66646563424624	101.71441113206768	-85.66646563424632	91.74691074214752	
0.22134341102890953	-53.902466582171215	43.56508275784521	102.32398898792643	43.565082757844934	158.1322866571885	-70.80448660159331	102.32398898792715	-70.80448660159335	81.47959527259358	
0.27667926378613694	-30.62038797805587	37.52202627351576	104.14262133946048	37.52202627351549	172.30853175084764	-55.42516413065289	104.1426213394612	-55.42516413065287	76.30599640083712	
0.3320151165433643	-36.44226366056998	41.995042728664316	108.75410103235794	41.99504272866394	180.7598342034416	-43.54642404685481	108.75410103235865	-43.54642404685475	77.48299024268644	
0.38735096930059165	-65.60321639360848	54.515504788554246	116.71880720934749	54.515504788553706	178.5729213749786	-37.33094712758556	116.71880720934807	-37.33094712758555	85.33061368271112	
0.44268682205781906	-107.10075665352478	70.21385516519507	127.0298139900153	70.21385516519439	166.90984081679463	-36.42377738510368	127.02981399001571	-36.42377738510381	98.78152718381777	
0.4980226748150465	-150.2834976716241	83.65044594077223	137.21628086354946	83.6504459407715	151.1238948126289	-38.16938525984105	137.21628086354963	-38.16938525984136	115.49542208234756	
0.5533585275722739	-188.97314817281452	90.43478418842257	144.16443013063008	90.43478418842192	135.64651031166662	-38.60124208879931	144.16443013063002	-38.60124208879983	132.46711111025178	
0.6086943803295012	-222.4413759015813	88.72040787844742	145.35624745458162	88.72040787844692	119.76903280486349	-33.838326479791306	145.35624745458136	-33.838326479792016	146.84968179361067	
0.6640302330867286	-253.4978872386719	80.05205504294658	139.9993630557728	80.05205504294636	96.83310079886064	-21.41618425013042	139.99936305577233	-21.416184250131245	156.62362417620318	
0.719366085843956	-285.63308196286647	68.8356296302698	129.58679205844317	68.83562963026995	57.47235389878118	-1.0436614189048736	129.5867920584426	-1.043661418905768	160.9014160729633	
0.7747019386011833	-320.86999011176397	60.50292355973079	117.58061419824378	60.50292355973126	-5.169965319032116	25.437203119767545	117.58061419824314	25.437203119766636	159.81305171283998	
0.8300377913584107	-359.1996075047169	58.990820343033576	108.23958721448905	58.9908203430344	-90.90708541560613	54.73920807288582	108.23958721448841	54.73920807288492	154.28511204546032	
0.8853736441156381	-398.342683663971	64.68553367572085	105.0604655048819	64.68553367572181	-191.16293134269173	82.92552761094518	105.06046550488134	82.9255276109443	145.94290430956016	
0.9407094968728655	-433.6637621567178	74.35393411274971	109.45190348248478	74.35393411275074	-291.62793077781214	105.9444978840409	109.45190348248438	105.94449788404	137.19800967733917	
0.996045349630093	-457.91761311933806	82.70336146279425	120.28604352939082	82.7033614627951	-376.9801545547521	119.94248196039341	120.28604352939064	119.94248196039251	131.33986470118975	
1.0513812023873204	-462.3745339656121	84.81220402629988	134.43412834116498	84.81220402630048	-436.0105095499021	121.82171222616873	134.43412834116506	121.82171222616788	132.18852498965498	
1.1067170551445478	-439.68400602822646	77.89022639471936	147.9266118891607	77.89022639471958	-464.1835841243568	110.2290794989984	147.92661188916102	110.22907949899758	143.12225335046523	
1.162052907901775	-387.55190824300166	61.74193107680438	157.12433083086552	61.74193107680419	-463.3936801526045	86.53078363839214	157.12433083086603	86.53078363839131	165.74877941792687	
1.2173887606590024	-310.6567643979084	37.98823189305672	159.55821249100478	37.98823189305624	-439.12371221481783	54.94228877278511	159.5582124910054	54.94228877278433	198.90759608181526	
1.2727246134162298	-219.84514864808222	9.099484279825614	154.23813006382608	9.099484279824928	-397.0526620064215	21.45946417759947	154.23813006382667	21.459464177598697	238.59813139895246	
1.3280604661734572	-128.0275746789784	-22.289019355170396	141.48371854873267	-22.289019355171106	-341.0537571698005	-7.9696778443383955	141.48371854873318	-7.969677844339158	278.92423014649535	
1.3833963189306846	-45.37753420430539	-53.48276568901079	122.39102711103315	-53.48276568901153	-273.0441589085819	-29.013800886776004	122.3910271110335	-29.01380088677675	313.6277323457981	
1.438732171687912	23.75352355918551	-81.41619216141434	98.250642488324	-81.41619216141495	-194.52684130594957	-39.615175728402654	98.2506424883241	-39.61517572840338	337.7480905524071	
1.4940680244451394	81.06562403493115	-102.44013109567663	70.42854241789892	-102.44013109567707	-107.56739139763121	-39.88002217511465	70.4285424178988	-39.8800221751153	349.1600718874106	
1.5494038772023666	132.94337991387516	-112.59892290576087	40.86935080559789	-112.59892290576114	-14.695350298247288	-31.83476174681831	40.86935080559758	-31.834761746818856	349.68578577155415	
1.604739729959594	187.67045784699775	-108.81512973146087	12.74960527468145	-108.81512973146096	82.8492452178724	-19.319418163747198	12.74960527468102	-19.319418163747635	344.9360507612335	
1.6600755827168214	252.87562645453625	-90.35691541183849	-9.741023319194024	-90.35691541183846	186.16348274498105	-7.6449434493086486	-9.7410233191945	-7.644943449308967	342.3137560717735	
1.7154114354740488	333.17984702038837	-60.26190530993039	-22.949626555108214	-60.26190530993038	298.4059774024019	-2.4107663314301995	-22.949626555108644	-2.410766331430427	347.6225097812897	
1.7707472882312763	428.19540504643174	-24.975149552906487	-25.865552739831777	-24.975149552906515	421.16104699994554	-7.622932731644163	-25.86555273983211	-7.62293273164434	362.29014223559824	
1.8260831409885037	532.3275410960898	7.7484648218945935	-21.243272576002074	7.748464821894473	551.5072465152798	-23.771190464912003	-21.243272576002305	-23.771190464912166	383.2756037987382	
1.881418993745731	636.503027374735	31.918974815443704	-14.57486929606383	31.918974815443498	680.4686292691323	-47.03541003603502	-14.574869296063959	-47.035410036035216	405.68200515332455	
1.9367548465029585	730.9793023561399	45.65135168168204	-11.403846878897486	45.6513516816818	795.9343978662117	-70.18054822298691	-11.403846878897546	-70.18054822298714	425.77390966685766	
1.992090699260186	807.40256232652	51.20365696608339	-14.792099883043715	51.20365696608315	886.5934999831363	-85.02437264256868	-14.792099883043747	-85.02437264256895	441.63619275991243	
2.0474265520174133	859.4816759166813	52.99523313660818	-24.522098265270362	52.99523313660802	944.4278746273615	-85.63861121272294	-24.522098265270408	-85.63861121272325	451.0205148227742	
2.1027624047746407	883.4254712930507	54.9374982454733	-38.18820467508809	54.93749824547321	965.1896121554098	-70.92090932433308	-38.18820467508819	-70.92090932433345	448.80954605729914	
2.158098257531868	878.147177457542	58.179182717475456	-52.818960273311525	58.1791827174754	947.3910835035009	-45.209258495035556	-52.8189602733117	-45.209258495035954	427.3650894946587	
2.2134341102890955	845.4364238735895	60.454549202669426	-65.77735384005672	60.45454920266948	892.2739738407831	-16.30863083626415	-65.77735384005697	-16.308630836264584	380.447788553319	
2.2687699630463225	788.5203907995134	57.08923909710421	-74.71702195210838	57.0892390971043	804.358474286504	8.319727884101372	-74.7170219521087	8.31972788410092	308.37315460940715	
2.32410581580355	710.4005766161278	43.16120675348226	-77.35420391002015	43.16120675348231	691.1324379747883	25.06677249410324	-77.35420391002052	25.06677249410278	220.4979802309282	
2.3794416685607773	612.8886236350578	16.68620747013449	-72.0401133141491	16.686207470134562	561.2027476430058	35.195583979508996	-72.04011331414947	35.19558397950856	132.75330292560315	
2.4347775213180047	498.2108246804767	-18.873197164247966	-58.84665915652879	-18.873197164247912	422.3581656128547	42.76826729784701	-58.84665915652917	42.76826729784664	61.41181313990679	
2.490113374075232	371.97677790086925	-54.92912690623298	-40.12923228375357	-54.92912690623287	281.6521256302667	50.99935750006921	-40.129232283753964	50.999357500068896	16.695415852646818	
2.5454492268324596	244.64827424348306	-81.18137770202358	-19.65310377569988	-81.18137770202344	147.35069633365055	59.667381965848776	-19.653103775700252	59.66738196584856	-0.26538493943578345	
2.600785079589687	129.2946753775203	-90.84472076273894	-0.6625321127175283	-90.84472076273877	30.47897856965612	65.07651253071433	-0.6625321127178623	65.07651253071418	4.120058834556934	
2.6561209323469144	37.5401485827762	-84.24172380223615	15.70223268294199	-84.24172380223602	-56.49903123110562	62.0887918445418	15.702232682941709	62.088791844541724	20.420186903772393	
2.711456785104142	-24.557755313107492	-68.34134616752024	30.33341885200019	-68.34134616752014	-103.43358117722359	46.556634224649	30.333418851999994	46.556634224648974	40.572351343476186	
2.766792637861369	-57.40592060226902	-52.49649904697596	44.57051376740992	-52.496499046975885	-107.08224078326747	16.79287449178279	44.57051376740978	16.79287449178279	59.71964768315024	
2.8221284906185966	-66.7319023668729	-43.401657146816824	58.39163212548719	-43.401657146816774	-73.40278593057064	-25.947197482238934	58.39163212548711	-25.94719748223893	75.17494208109792	
2.877464343375824	-61.54466777002858	-42.04334742280753	69.87913132729378	-42.043347422807486	-16.904461234513455	-77.18262431172641	69.87913132729372	-77.18262431172639	84.25357769471887	
2.9328001961330514	-52.81771260392722	-44.23255289263035	76.34059265025287	-44.23255289263035	44.076133642095435	-129.06371603646815	76.34059265025283	-129.06371603646812	83.27475687440871	
2.988136048890279	-51.4533600244734	-43.75725975873878	76.25293577856559	-43.75725975873881	93.7972886814959	-171.32829213065077	76.25293577856556	-171.3282921306507	68.93545238788643	
3.0434719016475063	-65.49264834899033	-36.26292714888645	70.53724860461196	-36.26292714888652	124.45218370862341	-194.12034041794777	70.53724860461192	-194.12034041794774	41.06102566071005	
3.098807754404733	-97.35920077832608	-21.19809442589155	62.14264534347914	-21.198094425891618	136.41604459162826	-191.9516004460324	62.14264534347908	-191.95160044603233	4.77105616050567	
3.1541436071619606	-141.96472310350717	-1.745775374023598	54.28423437757346	-1.7457753740236637	134.56382862953265	-166.34398732004485	54.28423437757342	-166.3439873200448	-29.8420095966852	
3.209479459919188	-188.14211395820593	17.32130677136786	48.47318518600732	17.321306771367787	122.44508183828691	-125.25031311087298	48.47318518600729	-125.25031311087292	-50.72602096301735	
3.2648153126764154	-223.6467545596525	31.887736432706056	43.70585110776137	31.887736432705985	99.66267804426104	-79.30380300605496	43.70585110776136	-79.30380300605489	-48.34069843649371	
3.320151165433643	-241.01444892272312	40.07913225763599	37.39797181628129	40.079132257635926	63.60047007972288	-37.2639319397777	37.397971816281306	-37.26393193977765	-19.504447581737132	
3.3754870181908703	-241.29902657759453	42.37406321127399	27.398374523661712	42.37406321127389	13.900660589778088	-3.4368058633228493	27.39837452366175	-3.4368058633227996	31.109640874915637	
3.4308228709480977	-232.9569533920943	41.2205689749767	13.70526526239206	41.22056897497659	-43.97395754386852	21.825963097565193	13.705265262392112	21.825963097565225	92.71135321547919	
3.486158723705325	-226.7756628128085	40.07833466308064	-1.1555991126360787	40.07833466308051	-98.94791559454232	39.56580176547095	-1.1555991126360166	39.565801765471	152.78999073475615	
3.5414945764625525	-229.4039528784322	42.167904967794804	-13.182326027964464	42.167904967794655	-138.0042932736378	49.871630317813654	-13.182326027964407	49.871630317813725	202.1404526555486	
3.59683042921978	-239.81706562320136	48.865485713531626	-18.67185582442836	48.86548571353147	-151.0069138834158	51.494948410405016	-18.671855824428302	51.4949484104051	238.07592272428712	
3.6521662819770073	-249.77217364745522	58.136956221426786	-15.803396889378634	58.13695622142666	-134.63193287778603	43.51696260947625	-15.80339688937859	43.51696260947633	263.9884879106872	
3.7075021347342347	-248.12449395675682	64.75652405888574	-5.442195854807842	64.75652405888562	-93.30167362427491	27.664961905803377	-5.442195854807828	27.66496190580349	285.6383528016	
3.762837987491462	-226.29144406730742	62.30884859973154	9.204059407861283	62.30884859973143	-37.810109908398545	9.209884849356397	9.204059407861276	9.209884849356504	306.5671076313612	
3.8181738402486896	-182.2628933043625	46.640636982734	23.76915455798171	46.64063698273392	18.293127662517648	-4.490838962510708	23.769154557981715	-4.490838962510608	325.6733492685171	
3.873509693005917	-121.44476697730879	18.737928710935975	34.263170826459906	18.737928710935932	61.97860217404512	-7.017151336334663	34.26317082645991	-7.017151336334585	338.4694376109796	
3.9288455457631444	-53.60900634778359	-14.897781712350728	38.33828288239158	-14.89778171235072	83.81516830215791	4.411623603182029	38.33828288239161	4.411623603182097	341.10619211814446	
3.984181398520372	11.092134369683215	-44.54191578124746	35.833461001757115	-44.54191578124745	79.57854929249343	28.06622349352988	35.833461001757186	28.066223493529936	334.44224944085033	
4.039517251277599	65.70275780732405	-61.009205593048414	28.48265016358404	-61.009205593048364	51.58485691144425	58.79337753498645	28.482650163584132	58.79337753498652	325.36345077479194	
4.094853104034827	107.51990401698959	-59.08440404732491	18.944567294465106	-59.084404047324824	8.630388172772058	89.99580169958104	18.94456729446521	89.99580169958112	324.31198443874933	
4.150188956792054	136.70319146393626	-39.22553008682618	9.480975888386876	-39.225530086826055	-35.97529212123624	115.47437177820908	9.480975888386983	115.47437177820916	340.32514492116445	
4.205524809549281	154.09542190212548	-6.9943870837314535	0.8744997880340222	-6.994387083731297	-68.77568425209091	130.78270977698975	0.8744997880340932	130.7827097769898	376.4412178462886	
4.260860662306508	159.20646719443306	29.21377250359428	-7.851802605038692	29.21377250359446	-81.30351866593699	133.981194934538	-7.851802605038657	133.98119493453802	428.05146487243724	
4.316196515063736	150.42489439329455	61.333222903042476	-18.481102798234936	61.333222903042646	-73.98353985518685	125.90760807691036	-18.481102798234936	125.90760807691038	485.0389878164875	
4.371532367820963	126.77627291082315	84.3092288944709	-31.94967737936591	84.30922889447102	-56.229029107414846	109.64296576760728	-31.94967737936593	109.64296576760725	536.2330387690897	
4.426868220578191	90.96660043058586	95.84225967439184	-47.06208014640271	95.84225967439191	-39.8911191979106	89.28500703830142	-47.06208014640274	89.28500703830133	573.8405327354783	
4.482204073335418	51.70353932181396	94.91979088308952	-60.657829838915845	94.91979088308955	-31.465340888033538	68.70607614225456	-60.65782983891585	68.70607614225449	595.8622175877676	
4.537539926092645	22.72398232245655	80.49503542282191	-69.35490313453091	80.49503542282191	-27.54708748794374	51.03429486406577	-69.35490313453091	51.034294864065664	605.8568762850014	
4.592875778849873	19.656993315747854	50.09651599205039	-71.55965650009826	50.096515992050364	-13.540941354634597	39.025098587244024	-71.55965650009823	39.0250985872439	610.5202299482937	
4.6482116316071	53.81029800267993	3.610576280845173	-68.54171997965156	3.610576280845123	25.314392162839994	35.65829893269081	-68.54171997965149	35.65829893269065	616.419670360785	
4.703547484364328	126.0493476743459	-51.169678134454685	-63.87614512530369	-51.169678134454784	88.14038882987361	44.09870616071216	-63.876145125303616	44.098706160711934	627.0738515337534	
4.758883337121555	223.82508901412345	-94.76287095974274	-61.45368309449885	-94.76287095974297	148.06500270810704	66.72841042432987	-61.45368309449878	66.72841042432955	641.4694628550164	
4.8142191898787825	324.7447775315276	-100.76303621030385	-63.40431556300072	-100.76303621030416	159.8971181367802	103.71255475673107	-63.40431556300066	103.71255475673064	654.542460434237	
4.8695550426360095	406.12644716140056	-50.50669312890801	-69.00763843601791	-50.50669312890852	89.63477175911305	152.17153983356255	-69.00763843601788	152.171539833562	659.3722750590333	
4.924890895393237	455.8440684927902	49.93837287634631	-75.20156276758073	49.93837287634574	-51.154823625551444	206.5973433445375	-75.20156276758073	206.59734334453685	650.0314724284356	
4.980226748150464	477.161390038772	164.28356330099052	-78.32542248684202	164.28356330098995	-195.4087686926814	260.2085087248802	-78.32542248684207	260.2085087248795	623.6227561386211	
5.035562600907692	482.64838484147447	241.33829397747377	-76.0892862473195	241.33829397747257	-252.02169413730542	306.29445519390134	-76.08928624731966	306.2944551939007	580.6961112948941	
5.090898453664919	482.8947529508374	243.37937950501015	-68.6513679190131	243.37937950500907	-163.20416149690223	338.71239030389984	-68.65136791901334	338.7123903038994	524.3033484356887	
5.146234306422147	479.00018745770194	167.81365086533378	-58.352286689655834	167.81365086533265	54.90137812087937	351.72490525047357	-58.35228668965614	351.7249052504733	458.7664347265003	
5.201570159179374	465.37649047789847	46.29528057061293	-48.31097681246631	46.29528057061202	320.03863452439555	340.2312182262556	-48.310976812466635	340.2312182262555	388.84208104963506	
5.256906011936602	438.61277849157034	-76.10419884975448	-40.85353669675828	-76.10419884975548	533.8947286458867	301.33405897787657	-40.853536696758596	301.3340589778767	319.5535236610099	
5.312241864693829	402.6014822302427	-164.62757987907386	-36.63498522649037	-164.62757987907477	634.6881116232914	236.79586202654033	-36.634985226490635	236.79586202654065	256.1835285751828	
5.367577717451056	366.19949609261624	-205.92771860974378	-34.726058890783705	-205.92771860974452	617.9844255570217	154.70169164179265	-34.72605889078389	154.70169164179305	203.91219273972106	
5.422913570208284	336.35403685103074	-204.9411725670592	-33.352987370180536	-204.94117256705977	520.565387526413	68.4871188943895	-33.35298737018064	68.48711889438997	166.9056308746968	
5.4782494229655105	314.49417445938957	-175.59938702744014	-30.901829809280944	-175.59938702744063	388.6193100527969	-6.90515277309855	-30.901829809280997	-6.905152773098095	146.98825664230648	
5.533585275722738	298.2150181102572	-133.3352093327798	-26.866003980227454	-133.33520933278024	254.89245376301676	-60.08900569816826	-26.866003980227468	-60.08900569816783	142.61265308639298	
5.588921128479965	285.39867456232787	-91.44410014904116	-22.51379966689018	-91.44410014904149	133.30019573544317	-86.93944804833737	-22.51379966689015	-86.93944804833694	148.8735729407793	
5.644256981237193	276.2785878068591	-59.46057337385413	-20.95195207924217	-59.460573373854395	26.463931429789586	-91.05292050709235	-20.951952079242105	-91.05292050709195	158.96057931427708	
5.69959283399442	272.2163018088061	-41.992132284673964	-26.25444785283735	-41.99213228467414	-64.7332446540641	-81.08490914635482	-26.254447852837266	-81.08490914635443	166.66763479717852	
5.754928686751648	273.14383677530805	-38.09957282839579	-41.6130120581959	-38.099572828395885	-136.54995666033972	-66.58019609837493	-41.6130120581958	-66.58019609837451	169.0293147777673	
5.810264539508875	276.4304347918673	-41.57606829227891	-67.29818298873701	-41.57606829227886	-184.6926713959543	-54.463201768135455	-67.29818298873691	-54.463201768135	167.71644528107197	
