# Stress in units of bar (10^5 Pa)
# z	Sxx	Sxy	Sxz	Syx	Syy	Syz	Szx	Szy	Szz
0.0	239.65406093370672	-3.9325097425914066	68.83646430176202	-3.9325097425907174	126.11181520247631	-51.647122877276274	68.83646430176206	-51.64712287727742	96.4754181874968	
0.05506502410883078	232.5177332708554	-22.20522250659989	65.43379410856247	-22.205222506599284	114.50893844503403	-75.17493460796429	65.43379410856244	-75.17493460796547	85.22228265217369	
0.11013004821766156	220.08465247214508	-36.90297336958325	58.32774096796794	-36.90297336958272	90.07096040157768	-96.95687715627669	58.32774096796776	-96.95687715627787	73.6946484721805	
0.16519507232649233	204.70974112875393	-47.58065086707953	48.81783664513581	-47.58065086707903	55.65156836489041	-114.83324770848263	48.81783664513546	-114.83324770848378	61.86261862479872	
0.22026009643532313	188.37166758198546	-54.55477972230596	38.18682867151321	-54.55477972230548	14.877893795324525	-126.90941088023484	38.186828671512636	-126.90941088023592	49.78365214782718	
0.2753251205441539	172.54928785966482	-58.638528005206986	27.53011995023269	-58.63852800520648	-28.312251071742295	-131.93721403492256	27.530119950231914	-131.9372140349235	37.93166135115237	
0.33039014465298466	157.9466029546887	-60.79114050825348	17.680205106510922	-60.79114050825293	-70.29886217240318	-129.58028322956864	17.680205106509977	-129.58028322956943	27.367963557045037	
0.38545516876181546	144.7415255938715	-61.83952850705896	9.224756282556546	-61.83952850705833	-108.01547480470016	-120.47214167451722	9.22475628255547	-120.47214167451787	19.6520958920239	
0.44052019287064625	132.82866787958318	-62.23236068116235	2.5528364246141027	-62.23236068116168	-138.98474300390345	-106.06411968404738	2.5528364246129556	-106.06411968404791	16.523583401266595	
0.49558521697947705	122.12545029118233	-62.087596363872066	-2.080185188971356	-62.08759636387138	-161.42762330319403	-88.28792955870934	-2.0801851889725187	-88.28792955870978	19.477817740869238	
0.5506502410883078	112.84949960918635	-61.314427372589314	-4.489123535466336	-61.31442737258859	-173.8717994504214	-69.14014183768411	-4.4891235354674714	-69.14014183768445	29.382160351704734	
0.6057152651971386	105.33335430921488	-59.64895344555565	-4.5740119813898765	-59.64895344555494	-175.33377769458397	-50.321390305024806	-4.574011981390949	-50.32139030502515	46.234605814700025	
0.6607802893059693	99.74473148618617	-57.03523065854924	-2.3291812920095456	-57.035230658548585	-165.26731983242848	-32.98983410806544	-2.329181292010534	-32.989834108065814	69.13593080295435	
0.7158453134148002	95.62422712354159	-53.51712950286984	2.1399522772194697	-53.517129502869295	-143.95743722335214	-17.69606412170286	2.139952277218568	-17.69606412170328	96.43322144942807	
0.7709103375236309	91.69763774274244	-49.58683236682758	8.592988313103831	-49.58683236682717	-112.9625769836945	-4.44698492962724	8.592988313103028	-4.446984929627736	125.96411883767023	
0.8259753616324618	85.8247422590211	-45.987890311819655	16.712975428634202	-45.987890311819434	-75.41387142557478	7.14794257808068	16.7129754286335	7.147942578080099	155.37196198022403	
0.8810403857412925	75.5536613380635	-43.85547544317721	26.132495807088716	-43.85547544317721	-35.73357686460649	17.72618782439121	26.132495807088112	17.72618782439055	182.41281733534655	
0.9361054098501232	58.694187427323186	-44.4498248102908	36.469066326107985	-44.44982481029102	0.8291706577212281	28.051726217388406	36.46906632610749	28.05172621738768	205.24195147599667	
0.9911704339589541	33.94461230146703	-48.997907424900276	47.35467895474781	-48.99790742490069	29.15059827212346	38.86954432968102	47.35467895474741	38.86954432968027	222.66615028379832	
1.0462354580677848	1.253654900548895	-58.290345793962125	58.43525446160996	-58.290345793962736	45.57521356731578	50.738741942535604	58.43525446160964	50.738741942534816	234.31109300856764	
1.1013004821766157	-38.19802686042787	-72.59291200994899	69.32970266212409	-72.59291200994976	48.51456499099665	63.85551695719408	69.32970266212385	63.855516957193274	240.70030804839655	
1.1563655062854463	-82.05853007510692	-91.39907844183602	79.61473406978344	-91.39907844183688	39.164405217713906	77.90405447294897	79.61473406978325	77.90405447294818	243.23211477627655	
1.2114305303942772	-127.67624489178424	-113.46027019879537	88.82002665041689	-113.46027019879627	21.066694460993435	92.01175566176677	88.82002665041674	92.01175566176597	244.0468670365134	
1.266495554503108	-172.22042942497376	-137.02860592373156	96.4565911810868	-137.0286059237325	-0.6285401021270616	104.85894272023124	96.45659118108667	104.85894272023044	245.793082575136	
1.3215605786119387	-212.85798473817476	-159.88511519488327	102.08837916150827	-159.88511519488424	-20.302800469321582	114.92195484198177	102.08837916150816	114.921954841981	251.25677862776496	
1.3766256027207695	-246.8876652654439	-179.91985890170798	105.32569300811615	-179.919858901709	-33.10937314520835	120.76966200025605	105.32569300811603	120.76966200025527	262.880228679249	
1.4316906268296004	-271.2661379370718	-195.0969715259954	105.81680266843038	-195.0969715259964	-35.798717013303964	121.35192294138126	105.81680266843028	121.35192294138051	282.2416097886112	
1.4867556509384312	-282.70151379946856	-203.79821709803878	103.19234742447996	-203.79821709803983	-27.079620702120565	116.15448408246985	103.19234742447989	116.1544840824691	309.5966194867067	
1.5418206750472618	-277.56884947791985	-204.89977546906402	97.05138094970705	-204.89977546906513	-7.352380029236599	105.23166424616417	97.05138094970704	105.23166424616348	343.5326019765684	
1.5968856991560927	-252.4168155734744	-198.04973826803902	87.02213419039316	-198.04973826804016	22.075440308946142	89.12713952489356	87.02213419039322	89.12713952489291	381.01615088402815	
1.6519507232649235	-204.54267201084193	-183.61848809642967	72.94195348020935	-183.6184880964308	59.73392375475996	68.71096091471063	72.94195348020943	68.71096091471003	417.8719565217235	
1.7070157473737542	-133.00301935601405	-162.9018853042311	55.06778092431502	-162.9018853042321	104.44405996588371	45.015998942181156	55.067780924315194	45.015998942180644	449.5542987320614	
1.762080771482585	-39.21592681961296	-137.96656059684992	34.24696939795486	-137.96656059685088	155.6063098815432	19.03304923135321	34.2469693979551	19.033049231352788	472.14340171487186	
1.8171457955914159	72.65115904183634	-111.33336968792969	11.919223874585096	-111.33336968793054	212.65878091208612	-8.407223544872856	11.919223874585406	-8.407223544873194	483.18605320127995	
1.8722108197002465	195.44710955224141	-85.59400832622025	-10.12640780739479	-85.59400832622093	274.5350014747196	-36.706770435461536	-10.126407807394441	-36.70677043546179	482.17193621162755	
1.9272758438090773	319.6625982329456	-62.84589596921492	-30.166203460325764	-62.845895969215476	339.0164510439808	-65.36690520755386	-30.16620346032538	-65.36690520755403	470.4032365156398	
1.9823408679179082	434.3058625756626	-44.376822210905225	-46.97173629571491	-44.376822210905644	402.4425730852414	-93.7416425941843	-46.97173629571452	-93.7416425941844	450.3063284442766	
2.037405892026739	528.2649341392868	-30.54300744244506	-60.06491249027658	-30.543007442445365	459.97080364977495	-120.76311274259238	-60.064912490276214	-120.76311274259243	424.43074370190556	
2.0924709161355697	592.057563045766	-20.920892856660686	-69.64915962202005	-20.920892856660913	506.0938519102585	-144.76246379293258	-69.6491596220197	-144.7624637929326	394.4924427621966	
2.1475359402444005	619.2776184477943	-14.567803079004193	-76.20354658971523	-14.567803079004307	535.5969491586525	-163.56214846685648	-76.20354658971493	-163.56214846685646	360.78939905717516	
2.2026009643532314	607.661778535735	-10.258361139612475	-79.95121085704452	-10.25836113961256	544.2917451331939	-174.85294615785352	-79.95121085704429	-174.8529461578535	322.33386614190294	
2.2576659884620622	559.6203668309151	-6.556371838904184	-80.38028682424338	-6.556371838904255	529.6893872413137	-176.7297604264416	-80.3802868242432	-176.7297604264416	277.69003978466185	
2.3127310125708926	481.4653625633201	-1.8191709900214939	-76.14195328549224	-1.8191709900215525	491.5347695433232	-168.2054170362913	-76.14195328549211	-168.2054170362913	226.18226529430433	
2.3677960366797235	382.4704878095191	5.67242503430006	-65.38259319710312	5.672425034299982	431.98810140204733	-149.43480704953328	-65.38259319710305	-149.43480704953333	169.0098355282036	
2.4228610607885543	273.2185108150954	17.554982681427873	-46.44933545757188	17.554982681427788	355.6188752527253	-121.58688241652162	-46.44933545757185	-121.58688241652166	109.73622080833007	
2.477926084897385	164.1536769552181	35.039980250152105	-18.723076641458004	35.03998025015204	269.0506199245611	-86.49692147771529	-18.723076641457993	-86.49692147771536	53.87979442935643	
2.532991109006216	64.46801033716217	58.279554690036775	16.738267618735527	58.27955469003666	180.28480083755153	-46.2759204910625	16.73826761873554	-46.27592049106255	7.677852270762003	
2.588056133115047	-18.814013289528027	86.24556884170495	57.02229626034412	86.24556884170484	97.72047705675428	-3.0917962149245533	57.02229626034413	-3.0917962149245817	-23.525674593710107	
2.6431211572238773	-81.05639940603685	116.59696995146805	97.72789064674572	116.59696995146797	29.127464852803627	40.751714231344856	97.72789064674573	40.75171423134484	-36.68002158638156	
2.698186181332708	-120.1495520433993	146.27861484998692	133.8635610999557	146.2786148499868	-19.640247413966847	82.60848728626158	133.86356109995572	82.6084872862616	-31.70048616001074	
2.753251205441539	-136.34423319356972	172.09167855937227	160.97768521945636	172.0916785593721	-45.029891087386005	119.33765631041226	160.97768521945636	119.33765631041226	-11.224954142095656	
2.80831622955037	-131.84150864414437	191.44367495772767	176.1878139680149	191.44367495772747	-46.6041396143045	147.5171826263289	176.18781396801492	147.51718262632892	20.394303929052057	
2.8633812536592007	-110.27511698954909	202.69234875785622	178.84947493559224	202.692348757856	-26.982282311560397	163.98075832632443	178.84947493559224	163.98075832632446	58.36688969933027	
2.9184462777680316	-76.44259864549429	205.40618656365672	170.6512403253982	205.40618656365652	8.598340926347067	166.57048476452823	170.6512403253982	166.57048476452826	98.46155640833851	
2.9735113018768624	-35.874490560832655	200.01561832563522	155.1144061460156	200.015618325635	53.00947300835527	154.8766760467601	155.1144061460156	154.87667604676014	137.40092781249868	
3.028576325985693	5.615618450456066	187.47923562347847	136.6761058742489	187.4792356234783	98.16685145239771	130.56173776663465	136.67610587424886	130.56173776663468	172.67387121595607	
3.0836413500945237	41.8162311625001	169.1836345730431	119.57511648901776	169.18363457304295	136.46144540585962	97.17380474787511	119.57511648901774	97.17380474787515	202.04436311747966	
3.1387063742033545	66.54784731644597	146.5555160708317	106.86714426441674	146.55551607083157	161.72601599649533	59.48222658871712	106.86714426441672	59.48222658871716	223.17921488280416	
3.1937713983121854	74.6604646560807	121.26415891548005	99.89077194962388	121.26415891547992	170.42281828170212	22.541623393179556	99.89077194962387	22.541623393179595	233.64680462613956	
3.2488364224210162	62.45967429652337	94.86532608408532	98.23968822486403	94.86532608408521	161.72014423879565	-9.230980044338658	98.23968822486401	-9.230980044338619	231.31404591367547	
3.303901446529847	28.98423882476655	68.87373368821403	100.2605720439666	68.87373368821392	137.55822016122863	-32.669863629606596	100.26057204396659	-32.66986362960655	214.9994463367468	
3.3589664706386775	-23.57381107701407	44.53804748718144	103.79976749739299	44.53804748718136	101.87196036134213	-46.15246432597287	103.79976749739299	-46.15246432597283	185.0744245929269	
3.4140314947475083	-89.84270794636261	22.8459060199937	106.96368775466011	22.84590601999361	59.73363153081664	-49.591414318415936	106.96368775466011	-49.59141431841591	143.65497595277273	
3.469096518856339	-161.9313775289674	4.328740503523406	108.63566920436325	4.328740503523328	16.551825445474663	-44.21216962861709	108.63566920436327	-44.21216962861707	94.32865052232526	
3.52416154296517	-230.83479026470167	-10.737934286449212	108.6492352629793	-10.737934286449288	-22.540123558284677	-32.25688195259333	108.6492352629793	-32.25688195259332	41.54817882498634	
3.579226567074001	-288.20803120305675	-22.391705357673686	107.59631399175224	-22.39170535767375	-53.23503074277175	-16.632361309104624	107.59631399175223	-16.63236130910461	-10.173527622528049	
3.6342915911828317	-327.62749779869995	-31.005486020207314	106.39623246809171	-31.005486020207368	-72.01401882031257	-0.5354414754088026	106.39623246809171	-0.5354414754087937	-56.898096439949185	
3.6893566152916626	-345.5813283299768	-37.26374441378724	105.88032971606363	-37.26374441378727	-76.56241145348912	13.020654254433381	105.88032971606363	13.020654254433378	-95.64808169283307	
3.744421639400493	-341.77955892332807	-42.12166634138238	106.45179918548675	-42.121666341382394	-65.59640473117143	21.620778251642687	106.45179918548675	21.620778251642687	-124.40140117162277	
3.799486663509324	-318.69866460622035	-46.619681317113304	107.91883867541921	-46.61968131711333	-39.23014022549572	23.75708033099071	107.91883867541921	23.757080330990696	-141.9264430127953	
3.8545516876181547	-280.6409256552262	-51.5179338100507	109.57991981090512	-51.517933810050735	0.9892640236515717	18.94101568247688	109.57991981090514	18.941015682476873	-147.61553072480558	
3.9096167117269855	-232.86216552782585	-56.98757806897329	110.4400972516701	-56.9875780689733	51.917548809763076	7.593840202559317	110.44009725167012	7.593840202559316	-141.46524565654846	
3.9646817358358164	-180.5335901825254	-62.447691081198656	109.5387418721684	-62.44769108119867	108.86916286120822	-9.253883792515488	109.53874187216842	-9.253883792515468	-124.25047301013083	
4.019746759944647	-128.37447750426907	-66.63368015829059	106.33436360002463	-66.63368015829062	166.02146440447754	-30.246169917905995	106.33436360002464	-30.246169917905945	-97.79832629693455	
4.074811784053478	-80.43808070615337	-67.89183460552796	100.97211160897234	-67.89183460552799	217.22775714853435	-53.807719202053015	100.97211160897238	-53.80771920205295	-65.11061698949804	
4.129876808162309	-40.099672025092694	-64.71140536504419	94.4383808765524	-64.71140536504421	256.98839051822046	-78.08154400087481	94.43838087655243	-78.08154400087471	-30.086601734350662	
4.184941832271139	-10.249047188706879	-56.24766306234562	88.40023880198797	-56.247663062345666	281.42431958380297	-100.818796291743	88.400238801988	-100.81879629174293	3.133446543987894	
4.24000685637997	7.094722224849582	-42.81732394425252	84.73149778240412	-42.81732394425261	289.1974033714249	-119.36349956325662	84.73149778240418	-119.36349956325652	31.149334085046938	
4.295071880488801	10.987140610940415	-25.933848627862663	84.79724207829297	-25.933848627862755	281.5237660735343	-130.93312676602682	84.79724207829302	-130.93312676602673	52.221587186321266	
4.3501369045976315	2.3029096182120483	-8.254116119449282	88.69106188054192	-8.254116119449389	262.1885465826807	-133.17246933937378	88.69106188054195	-133.1724693393737	66.81533290610902	
4.405201928706463	-15.935254243558337	7.000618343960802	94.82912990202965	7.000618343960689	236.90059487158575	-124.83225017035608	94.8291299020297	-124.83225017035599	77.46509844181806	
4.460266952815293	-38.8857968017266	16.781620512082156	100.10117332277721	16.78162051208203	212.41431637140755	-106.2969933016169	100.10117332277729	-106.29699330161685	87.94864235550617	
4.5153319769241245	-60.11460475576358	18.918640690953623	100.64105133468021	18.918640690953453	195.75215839454987	-79.71733861941837	100.64105133468033	-79.71733861941834	102.098979029733	
4.570397001032955	-72.77255718791909	12.746604120055071	93.01986967941974	12.746604120054892	193.1965414879649	-48.632042164766816	93.01986967941988	-48.63204216476679	122.58743023557565	
4.625462025141785	-70.87494461171508	-0.7693350758907762	75.47964649911157	-0.7693350758909538	209.4466927237128	-17.23769186861395	75.47964649911168	-17.237691868613908	150.10425258069358	
4.680527049250617	-50.15091167466346	-19.253914283450587	48.69171844706506	-19.253914283450786	246.75360146661922	10.547118648849086	48.69171844706518	10.547118648849114	183.24283375910304	
4.735592073359447	-8.82473826999156	-39.54074689395149	15.793916802591017	-39.54074689395168	304.460617643818	31.88509959716952	15.793916802591124	31.88509959716955	219.02567775262054	
4.790657097468278	52.16117370993479	-58.549224474013684	-18.314642077442837	-58.54922447401388	378.69010899821393	45.483843809380616	-18.314642077442773	45.48384380938063	253.84137312542904	
4.845722121577109	129.24758825210648	-74.00894788259558	-48.15147222141559	-74.00894788259573	463.1966898621453	51.68759407653276	-48.151472221415546	51.687594076532775	284.38193016648137	
4.90078714568594	216.8759346146971	-85.13969168099668	-68.91975001039674	-85.13969168099678	550.0582921405381	52.17198003593589	-68.91975001039677	52.17198003593585	308.295902898821	
4.95585216979477	307.96889735736374	-92.76168734666723	-77.47084090352647	-92.76168734666726	631.1073201073596	49.298148476026576	-77.47084090352654	49.29814847602653	324.40567065590983	
5.010917193903601	394.62402702453994	-99.089092747846	-72.79491498420975	-99.08909274784594	698.9626006285624	45.394650632649544	-72.79491498420987	45.39465063264947	332.59422641225717	
5.065982218012432	469.2651314636956	-107.08036752667662	-55.98333983042848	-107.08036752667647	748.1295383020324	42.086788412690254	-55.98333983042858	42.086788412690154	333.53123244857295	
5.1210472421212625	525.5036923149487	-119.46991015493572	-29.818496687984897	-119.46991015493549	775.3959882870986	39.90444898829243	-29.818496687985014	39.9044489882923	328.4246491129966	
5.176112266230094	559.2442129409941	-137.848641321949	1.8775140679853077	-137.84864132194866	780.3147447665501	38.31375668637246	1.8775140679851958	38.3137566863723	318.9615005752034	
5.231177290338924	569.5689334628873	-162.01038200990547	34.947567451359156	-162.01038200990504	765.0650444254075	36.110878088175205	34.94756745135907	36.110878088175035	307.2617443268057	
5.286242314447755	558.7374654982955	-189.70400711383692	65.51685385030737	-189.7040071138365	734.0521542683581	32.02506883370642	65.51685385030731	32.02506883370622	295.77613198574375	
5.341307338556586	531.7955119776003	-217.06828221935803	90.44538814996334	-217.06828221935757	692.8851678844755	25.29551532741657	90.44538814996326	25.295515327416364	286.95591718467773	
5.396372362665416	495.10222103334064	-239.49926181907898	107.6426324154931	-239.49926181907853	647.1403564825429	16.014337007975392	107.64263241549303	16.014337007975172	282.76428453229715	
5.451437386774248	454.8357753506872	-252.75147011777506	116.19546514754495	-252.75147011777472	600.9743317702864	5.072363053850282	116.19546514754487	5.072363053850038	284.1402973748967	
5.506502410883078	415.5689870588294	-254.0934451947715	116.34649106935868	-254.09344519477128	556.4106246937138	-6.217367918427939	116.3464910693585	-6.217367918428231	290.660836919856	
5.561567434991909	379.70735224796	-242.93653726423477	109.39680911506022	-242.93653726423463	513.0051171812811	-16.605970193128854	109.39680911506005	-16.605970193129206	300.4902267295026	
5.61663245910074	347.30227423746396	-220.9842744030896	97.50993534158758	-220.98427440308956	468.75231344305234	-25.313193690312964	97.50993534158734	-25.313193690313394	310.72438899874595	
5.67169748320957	316.877144963745	-191.65222673205537	83.39970465308078	-191.65222673205554	421.04441375682643	-32.21935653048609	83.39970465308048	-32.219356530486635	317.96501212145455	
5.726762507318401	286.3015651077818	-159.1471074720963	69.94154237416792	-159.14710747209662	368.1796771470042	-37.795024819906786	69.94154237416761	-37.79502481990745	319.018661350231	
