# Stress in units of bar (10^5 Pa)
# z	Sxx	Sxy	Sxz	Syx	Syy	Syz	Szx	Szy	Szz
0.0	120.85446232764103	-99.19919585143438	-19.357451660116553	-99.19919585143421	87.74569350037106	-32.974068327632835	-19.357451660116656	-32.97406832763331	1.1397387277035618	
0.05509886491261306	97.76940096296954	-91.46053997227772	-30.646478572114606	-91.46053997227772	43.847132566029664	-45.37715902933855	-30.646478572114805	-45.37715902933909	0.788120446699879	
0.11019772982522612	75.75163089122543	-84.84442002589064	-44.09378506001452	-84.84442002589078	-2.181121056986619	-52.452859563898166	-44.09378506001479	-52.452859563898734	3.017515944981776	
0.16529659473783917	56.15744167770431	-79.6084108561472	-58.254462188044	-79.60841085614749	-45.81810356666844	-53.92101865560417	-58.25446218804433	-53.921018655604755	8.057488716003414	
0.22039545965045224	40.185613596622986	-75.86988787748545	-71.7530694658135	-75.86988787748591	-82.99379686933254	-49.81410032268961	-71.7530694658139	-49.81410032269018	15.831523864858458	
0.2754943245630653	29.21922177048905	-73.564522598588	-83.521899029932	-73.56452259858854	-110.79579279454916	-40.450700388088634	-83.5218990299324	-40.45070038808918	26.000464038199382	
0.33059318947567834	24.24364531330309	-72.46718309655705	-92.90602601614242	-72.4671830965577	-127.85190847572628	-26.528176806722612	-92.9060260161428	-26.528176806723128	38.148396521111806	
0.3856920543882914	26.32741405406394	-72.19883429575849	-99.60688955994333	-72.19883429575923	-134.22369043100085	-9.24567917616629	-99.60688955994371	-9.245679176166792	51.97142477245419	
0.44079091930090447	36.29390602847174	-72.19728455799418	-103.55104378039559	-72.19728455799495	-131.21190808981828	9.638140182699678	-103.5510437803959	9.638140182699182	67.41571317222144	
0.49588978421351754	54.92848013614496	-71.81713533660488	-104.74336678957748	-71.81713533660565	-120.65691697715627	27.943171618939346	-104.74336678957775	27.94317161893884	84.66279320134468	
0.5509886491261305	82.90916777408063	-70.57586433228994	-103.1452426264429	-70.57586433229078	-104.53864092891715	43.378958827697275	-103.14524262644309	43.37895882769678	103.93727720224182	
0.6060875140387436	120.55400467217072	-68.29580897240665	-98.67995698400813	-68.29580897240754	-84.52265325866341	53.97756461099004	-98.67995698400826	53.97756461098956	125.24595393346512	
0.6611863789513567	167.3548004735909	-65.27781597909706	-91.30813355944659	-65.27781597909804	-61.85537555088398	58.481492558070684	-91.30813355944665	58.48149255807022	148.1047625696299	
0.7162852438639697	221.64256815173863	-62.23923730822898	-81.12575645179425	-62.23923730823004	-37.42897958161026	56.5624297914996	-81.12575645179427	56.56242979149921	171.41389717218968	
0.7713841087765828	279.8755806528192	-60.16250436554193	-68.45158177042607	-60.16250436554308	-12.22261844407019	48.772837125865536	-68.45158177042607	48.772837125865216	193.5425957356003	
0.8264829736891959	336.6120140912299	-59.978764853341815	-53.82443170392574	-59.97876485334302	12.65504951355587	36.29799495211502	-53.82443170392574	36.2979949521148	212.5823450215601	
0.8815818386018089	384.76931989554856	-62.24879762642169	-37.934905619833565	-62.24879762642294	35.51636196590508	20.61176419036361	-37.934905619833565	20.611764190363445	226.68917304528657	
0.936680703514422	416.6450382596564	-66.97642578367547	-21.521075379348396	-66.97642578367672	54.43622500937013	3.1604179040258393	-21.5210753793484	3.160417904025734	234.48397579909926	
0.9917795684270351	425.13842556281986	-73.40319126419995	-5.2557006366521035	-73.40319126420113	67.61326626266386	-14.826053220126536	-5.255700636652095	-14.82605322012662	235.27081337655522	
1.0468784333396481	405.4722550461484	-80.2766177812318	10.325916176816976	-80.27661778123286	74.09051160548118	-32.305470103082726	10.325916176817	-32.305470103082804	229.1798409977883	
1.101977298252261	356.53111386277175	-86.13126562100308	24.863790753179416	-86.13126562100396	74.47911415133454	-48.35627351489722	24.863790753179455	-48.35627351489731	217.07756746041974	
1.1570761631648743	281.5087385906253	-89.71701222315437	38.16924129940332	-89.71701222315502	71.19682361739495	-62.076033741301714	38.16924129940335	-62.07603374130183	200.33073366389874	
1.2121750280774872	187.96192776229378	-90.41882251610822	50.1550105457354	-90.41882251610865	68.52533115752085	-72.5496677872151	50.15501054573544	-72.5496677872152	180.44420124597366	
1.2672738929901004	86.57964885153577	-88.43845719348134	60.807191276342984	-88.43845719348151	71.55823636754323	-78.9365892624493	60.80719127634302	-78.93658926244939	158.73313927270144	
1.3223727579027134	-10.401260410453027	-84.65531240146811	70.16002670106083	-84.65531240146808	85.41145953571035	-80.62185710943838	70.16002670106083	-80.62185710943838	136.14737150153442	
1.3774716228153265	-91.50527349020092	-80.239917080411	78.30150525332189	-80.2399170804108	113.73953481987516	-77.36803942543838	78.30150525332184	-77.3680394254383	113.27049017707726	
1.4325704877279395	-147.6443874594945	-76.12597641844111	85.34638336041917	-76.12597641844077	158.25500621716373	-69.41247847229363	85.34638336041908	-69.41247847229346	90.51213019725833	
1.4876693526405527	-173.81221860107425	-72.4331099989452	91.38721187491666	-72.43310999894473	218.18960553584063	-57.48402901350802	91.38721187491652	-57.48402901350775	68.4048351936674	
1.5427682175531656	-169.26758971434987	-68.41370142021388	96.43525633973746	-68.41370142021334	290.5872565865769	-42.74397405922086	96.4352563397373	-42.74397405922051	47.86637701744411	
1.5978670824657788	-137.0641493680599	-62.4822778250284	100.30757118723218	-62.48227782502784	370.8793977605929	-26.680930168954983	100.30757118723199	-26.680930168954593	30.232470425063962	
1.6529659473783918	-82.86103012724034	-52.70860899957778	102.52172997753188	-52.70860899957724	453.5139083769962	-10.99691626724369	102.52172997753169	-10.996916267243302	17.040489112674166	
1.708064812291005	-13.175716124723948	-37.55020490988578	102.31538114178728	-37.55020490988528	533.1684915451501	2.460066016487539	102.31538114178713	2.4600660164879113	9.666188654448021	
1.7631636772036179	65.75802516935964	-16.490602141561517	98.80801744894018	-16.490602141561105	604.9644831370481	11.83020160727328	98.80801744894006	11.830201607273635	8.891293823981218	
1.8182625421162308	148.73370199693034	9.400398272517092	91.25773860156193	9.400398272517453	665.4170919259684	15.433641864207807	91.25773860156181	15.433641864208116	14.633888387151543	
1.873361407028844	231.56403546680357	37.33309563243267	79.39652521453503	37.333095632432915	712.5681758347054	12.093883894418674	79.39652521453496	12.093883894418937	25.919593527267164	
1.928460271941457	310.7468638061457	63.070402719270874	63.686982226967665	63.07040271927103	746.0229963327381	1.5171491694106507	63.68698222696762	1.517149169410903	41.07149051474888	
1.9835591368540701	382.7783285608226	81.64611024112716	45.35681354740345	81.64611024112722	766.2982170664927	-15.423544414147223	45.35681354740342	-15.423544414146967	57.99798798733231	
2.038658001766683	444.11794713850543	88.49954972711072	26.211041064166054	88.49954972711069	774.6269508478401	-36.63419679000673	26.211041064166036	-36.634196790006484	74.56054659777683	
2.0937568666792963	491.1405304345175	80.66029257705964	8.254687523802922	80.66029257705958	772.1867510669555	-59.075651374052896	8.254687523802913	-59.07565137405263	88.87675091801286	
2.1488557315919095	521.054026908409	57.62090351599992	-6.778945718491908	57.62090351599988	759.966497256829	-79.33888966024635	-6.778945718491904	-79.33888966024611	99.52124263931921	
2.203954596504522	532.0458708374312	21.78350877849941	-17.76419957094217	21.78350877849931	738.4603492561916	-94.30479438789949	-17.76419957094216	-94.30479438789924	105.66149677239416	
2.2590534614171354	523.968385228205	-21.95585045155339	-24.273678508311868	-21.95585045155346	708.0746677532213	-101.69990794778286	-24.273678508311853	-101.69990794778263	107.11516638088307	
2.3141523263297485	498.096210273727	-67.16336460320751	-26.40689594178568	-67.16336460320758	668.9201958288863	-100.39793036835239	-26.40689594178565	-100.3979303683522	104.28204791599948	
2.3692511912423617	456.7849204697002	-107.17764258890182	-24.509060361251645	-107.17764258890193	621.1544661596413	-90.38857786622904	-24.509060361251592	-90.38857786622889	98.0246410945737	
2.4243500561549745	403.0731329761123	-136.46045172066633	-18.914071133154124	-136.4604517206664	565.0284741713892	-72.56851000619189	-18.914071133154053	-72.56851000619176	89.48276947404668	
2.4794489210675876	340.02257769054137	-151.54473923111078	-9.864730744959338	-151.54473923111087	500.9777963567886	-48.55865486191634	-9.864730744959253	-48.55865486191624	79.95031728606027	
2.534547785980201	270.3923381208689	-151.48831222172365	2.3342490318881417	-151.48831222172373	429.7829540250198	-20.54895021688994	2.3342490318882554	-20.54895021688986	70.73167447133501	
2.589646650892814	196.83282772827891	-137.83814711199153	17.064984038894046	-137.83814711199167	352.9763803511904	8.790972045957185	17.064984038894163	8.790972045957256	63.11459758051829	
2.6447455158054267	121.80180022319908	-114.07438209444496	33.19241271419426	-114.07438209444507	272.8988097886406	36.47036516798857	33.19241271419439	36.47036516798863	58.35447534492593	
2.69984438071804	47.79498364284203	-84.78563531631947	49.05712087020245	-84.78563531631957	193.07678524597367	59.51843346680026	49.057120870202596	59.51843346680033	57.6224443549014	
2.754943245630653	-22.52684528966575	-54.72937772623393	62.74027636482333	-54.729377726234006	117.74481683595602	75.51226612171051	62.74027636482349	75.5122661217106	61.89436383296928	
2.810042110543266	-86.3694066108311	-27.961313932351995	72.5117127714139	-27.961313932352034	51.330417758539966	83.14365094553531	72.51171277141407	83.14365094553537	71.76150079884872	
2.865140975455879	-141.11260634814542	-7.06710159525975	77.26229269505575	-7.0671015952598	-2.5496129718903973	82.59169535241756	77.2622926950559	82.59169535241763	87.13879450498024	
2.920239840368492	-184.7156185483154	7.120213126738523	76.84403292337842	7.120213126738495	-41.94765536078697	75.62419850608016	76.84403292337856	75.62419850608023	107.09352562534391	
2.9753387052811053	-215.90693968464024	15.442233711887436	72.1553705759428	15.442233711887441	-67.1841913347679	65.1979665120947	72.15537057594292	65.19796651209474	129.82897794493093	
3.030437570193718	-234.5902539216959	19.888983135561617	64.94712531644282	19.888983135561617	-81.00059846863454	54.68467513253789	64.94712531644291	54.6846751325379	152.90933916169564	
3.0855364351063312	-241.6092383987013	22.96097434105596	57.356201706734	22.960974341055966	-87.83478466953929	46.91884820101666	57.35620170673407	46.91884820101667	173.69149246250421	
3.1406353000189444	-238.90308203483076	26.769486743387993	51.290774712006744	26.769486743387986	-93.02409151363182	43.381879136478226	51.29077471200679	43.381879136478226	189.91194873122168	
3.1957341649315576	-228.73050347880388	32.389235561975845	47.879124111881325	32.38923556197582	-101.3054616903995	43.78139957361525	47.87912411188134	43.78139957361521	200.28904414401978	
3.2508330298441703	-213.76676284800817	39.53836218094131	47.18272695114132	39.53836218094126	-116.0527019683997	46.169238792903016	47.18272695114133	46.16923879290297	204.94305947100665	
3.3059318947567835	-196.2179484097098	46.45418576966178	48.25410480316181	46.45418576966171	-138.24089751754718	47.57394207385381	48.25410480316181	47.573942073853765	205.4294189597435	
3.3610307596693967	-177.92042669737256	50.54234956338995	49.532075206250184	50.54234956338988	-166.3903004038396	44.899173918411165	49.53207520625017	44.899173918411094	204.39470351606667	
3.41612962458201	-160.19901554052265	49.09326223265597	49.495362216762075	49.093262232655874	-196.90667651378777	35.82317800055054	49.495362216762054	35.823178000550456	204.93454105703876	
3.4712284894946226	-143.85724361081694	40.26854138412499	47.263275295971766	40.26854138412489	-224.9758341897142	19.419740114950066	47.26327529597174	19.419740114949978	209.75677563339968	
3.5263273544072358	-129.57251589453708	23.969536385620607	42.854512164634386	23.969536385620493	-245.8983381197434	-3.5979520897148993	42.85451216463435	-3.5979520897150055	220.37859030489855	
3.581426219319849	-117.67301787638148	2.0202633254806663	37.103493661913134	2.0202633254805704	-255.80838561208338	-31.080311399099113	37.103493661913106	-31.080311399099227	236.6461754929274	
3.6365250842324617	-108.44674844952242	-22.002120418670298	31.30908957376315	-22.00212041867038	-252.88108031040474	-59.97923342693571	31.309089573763153	-59.979233426935814	256.6294788536693	
3.691623949145075	-101.98944443533432	-43.75742197066508	26.713144947966576	-43.75742197066515	-237.42605145016717	-87.03905617124818	26.71314494796659	-87.0390561712483	276.9693967012764	
3.746722814057688	-98.18097611231835	-59.18619419925627	24.09592232375585	-59.186194199256335	-211.94782165919116	-109.537533806813	24.095922323755893	-109.53753380681314	293.64326835140304	
3.801821678970301	-96.3965583733204	-65.51810815956148	23.55655119777643	-65.51810815956148	-180.1096383771589	-125.80611743975211	23.556551197776486	-125.80611743975228	302.94981309400237	
3.856920543882914	-95.6954054637245	-61.87473027190708	24.516749414819124	-61.87473027190708	-146.20385872390833	-135.48442014499395	24.516749414819195	-135.4844201449941	302.3873755616529	
3.912019408795527	-94.89720181329403	-49.193078105144636	25.91463571887588	-49.19307810514458	-114.07751523461471	-139.4117771298824	25.914635718875978	-139.4117771298826	291.31518030114466	
3.9671182737081403	-92.7986407210414	-29.824876608684963	26.589218940688244	-29.82487660868488	-86.33069931398316	-139.153554283439	26.58921894068837	-139.1535542834392	271.090854624378	
4.0222171386207535	-88.69188504372286	-6.89019481177646	25.62221864259178	-6.890194811776354	-64.19526918046361	-136.35914227351606	25.62221864259191	-136.35914227351626	244.69942553625674	
4.077316003533366	-82.6495768509977	16.28564734761207	22.659822233872884	16.28564734761222	-47.438676382092694	-132.18580779697595	22.659822233873026	-132.18580779697618	215.8905848685438	
4.13241486844598	-75.9531392023769	36.776290568177345	18.16521662200255	36.77629056817751	-35.19807399074452	-126.96347170416979	18.1652166220027	-126.96347170417002	188.27694184262927	
4.187513733358593	-70.95881026100083	52.23654449358333	13.426978297030253	52.236544493583516	-26.482670402309182	-120.28699556561448	13.426978297030399	-120.2869955656147	164.54256177018314	
4.242612598271205	-70.5997040106981	61.20133255386831	10.332963401706486	61.201332553868504	-21.032327704936435	-111.40478246719913	10.33296340170661	-111.40478246719934	146.13428877314388	
4.297711463183819	-77.46645967172239	63.20753887721858	10.882715812642195	63.20753887721878	-19.38785588114246	-99.68966453288596	10.8827158126423	-99.68966453288613	133.44421965024725	
4.352810328096432	-92.76196389740606	58.97344005934062	16.545023341830365	58.97344005934079	-22.446351704814518	-85.04074170986986	16.54502334183044	-85.04074170986999	126.34841697606765	
4.407909193009044	-115.42224869257595	50.2703155734516	27.641070639830776	50.27031557345179	-30.74826164904151	-67.91652394323236	27.641070639830815	-67.91652394323243	124.72264035759468	
4.463008057921658	-141.83895383142203	39.80087368615747	43.0047649113487	39.80087368615763	-43.21732010872124	-49.119651329348855	43.004764911348715	-49.119651329348855	128.73448266234703	
4.518106922834271	-166.3838307308195	30.647726868048203	59.99215129379213	30.647726868048338	-56.77087692793371	-29.377251422495334	59.99215129379213	-29.37725142249527	138.69249848124187	
4.5732057877468835	-182.61507821346643	25.646898884219635	74.98917331706352	25.646898884219777	-66.38430061757253	-8.947981296592701	74.9891733170635	-8.947981296592557	154.5717096787016	
4.628304652659497	-184.4164471816917	26.63271191794071	84.29270053675882	26.632711917940846	-65.96927522556908	12.500921448449379	84.29270053675879	12.500921448449581	175.5602212589903	
4.68340351757211	-167.465271644322	33.9037477715726	85.10389595034574	33.90374777157272	-50.05665468643724	35.74218763405256	85.10389595034572	35.74218763405285	199.78551878288945	
4.738502382484723	-129.36922165513766	46.141451179159866	76.2952268557028	46.141451179160015	-15.258016410316827	61.53024250008586	76.29522685570274	61.530242500086175	224.51506368873447	
4.793601247397336	-70.03315780501904	60.707265666767626	58.713943874422	60.70726566676778	38.541663360850265	90.0462582965198	58.713943874421915	90.04625829652012	246.73269137634423	
4.848700112309949	8.931790822005496	74.36320076260418	34.82733722511447	74.36320076260438	108.0073557540847	120.45392986351608	34.827337225114405	120.45392986351641	263.9331649290804	
4.9037989772225625	104.43704284130764	84.07040047121765	7.863978825256545	84.07040047121791	186.86304952728625	150.772895788724	7.863978825256481	150.77289578872433	274.76289529001576	
4.958897842135175	212.31491725455726	87.6423248148736	-19.15817982629886	87.64232481487386	267.5892499613619	178.1559204066253	-19.158179826298916	178.15592040662563	279.32614770804366	
5.013996707047788	326.90314938219785	83.9361106847145	-44.2466002631013	83.93611068471483	343.11849904695396	199.51932923000464	-44.24660026310135	199.51932923000496	279.0500983883818	
5.069095571960402	441.39821039803974	72.89711420659127	-66.70972209584224	72.89711420659162	408.5229056299313	212.352368470422	-66.70972209584227	212.35236847042222	276.1476604091373	
5.124194436873014	547.7728525389601	55.40548178801454	-86.82891470473001	55.405481788014896	461.8639867006134	215.4330745580309	-86.82891470473004	215.43307455803114	272.9677967823129	
5.179293301785628	637.8951245829525	33.1574205895149	-105.13056673056762	33.15742058951524	504.0245368986996	209.2030951961002	-105.13056673056761	209.20309519610043	271.36731217631063	
5.234392166698241	704.7719216727695	8.706458399274567	-121.60563553238859	8.706458399274943	537.5314016522083	195.67280515401524	-121.60563553238856	195.67280515401546	272.33230016651345	
5.289491031610853	743.7406076769431	-14.614087407604273	-135.2283214323744	-14.614087407603975	564.9764533761941	177.8749022961324	-135.22832143237434	177.87490229613263	275.9132536211098	
5.344589896523467	753.5738824595605	-33.1266660995896	-143.98681681847563	-33.12666609958936	587.6698568256254	159.01311505473853	-143.98681681847555	159.01311505473873	281.35136139128156	
5.39968876143608	736.3186152372981	-43.43789909531211	-145.48887214107123	-43.43789909531194	604.8693918502208	141.62728030809052	-145.4888721410711	141.6272803080907	287.29208663445735	
5.4547876263486925	696.6823938337325	-43.53348717591324	-137.82292451051438	-43.53348717591311	614.3555999742852	127.06447314706419	-137.82292451051424	127.06447314706438	292.0334320085538	
5.509886491261306	640.4090500848969	-33.41984234209495	-120.37788450511377	-33.41984234209488	613.5093590322233	115.3778867496128	-120.37788450511366	115.37788674961294	293.7785764454819	
5.564985356173919	573.0567714952872	-15.552021905433051	-94.30104342288892	-15.552021905433072	600.9463668203775	105.7078854209659	-94.30104342288884	105.70788542096601	290.9058423297181	
5.620084221086532	498.65384623443236	5.648919642143891	-62.40845397580603	5.648919642143813	576.7484979060256	96.8876397615896	-62.408453975806	96.88763976158964	282.3000651997985	
5.675183085999145	419.6877786324976	24.70680907938415	-28.655077648313114	24.706809079384005	542.7875562206501	88.06879794603066	-28.655077648313153	88.06879794603067	267.70976542844267	
5.730281950911758	337.2798311394857	36.36688040384729	2.6915433936173727	36.36688040384709	501.5150402929343	79.09248311244035	2.691543393617299	79.09248311244032	247.9696765864099	
5.785380815824372	251.979943672748	36.76875728991832	27.867602686513155	36.76875728991807	454.84892168410033	70.48889683788498	27.867602686513028	70.4888968378849	225.02553098013036	
