# Stress in units of bar (10^5 Pa)
# z	Sxx	Sxy	Sxz	Syx	Syy	Syz	Szx	Szy	Szz
0.0	122.5621017384449	-93.03902736410612	-2.7744873201540114	-93.03902736410582	120.61116236552694	-54.31942989601626	-2.7744873201541598	-54.3194298960169	-6.576626591199569	
0.05509886491261306	95.96346528282366	-85.09107140946813	-21.26080611523384	-85.09107140946803	55.22681398465071	-66.23975660087899	-21.260806115234082	-66.23975660087972	-10.63419390778881	
0.11019772982522612	68.48451073891032	-79.84642688358404	-43.01527801181488	-79.84642688358423	-15.0746478031432	-71.9606246904053	-43.01527801181521	-71.96062469040602	-10.609046449796226	
0.16529659473783917	42.496235020947665	-75.30284448677234	-64.31889345248271	-75.30284448677276	-79.78599916387458	-73.08696451099854	-64.31889345248312	-73.08696451099922	-5.029763865474115	
0.22039545965045224	20.88919890040774	-70.75062192227118	-82.2625249528136	-70.75062192227179	-130.22942929729993	-69.76692020120406	-82.26252495281409	-69.76692020120467	6.024164344909078	
0.2754943245630653	5.93379808411359	-67.25459287025845	-95.4159787734551	-67.2545928702592	-161.8175773206716	-60.72025773209951	-95.4159787734556	-60.72025773210001	20.689385259740202	
0.33059318947567834	-1.393297069129801	-66.55800535213993	-103.86778746687168	-66.55800535214071	-174.36007502041758	-44.37907729319074	-103.86778746687216	-44.37907729319117	36.173199961780185	
0.3856920543882914	-0.9693085619398829	-69.27903422966808	-108.76137871039865	-69.2790342296689	-170.86935544765046	-20.402268241321867	-108.7613787103991	-20.40226824132227	50.30189871996518	
0.44079091930090447	6.913340131777463	-74.06975973139768	-111.51281919678758	-74.06975973139842	-156.12780148906666	9.2672729827832	-111.51281919678794	9.267272982782789	62.84469416593618	
0.49588978421351754	22.449800454741002	-78.2088022972629	-112.98993427176727	-78.20880229726362	-135.24552826786967	40.33605141579317	-112.9899342717676	40.33605141579268	75.69179497229294	
0.5509886491261305	46.381906992262	-79.07020418810276	-113.00307994642165	-79.07020418810349	-112.42188145909951	67.19282041183767	-113.00307994642185	67.19282041183709	91.7889995034609	
0.6060875140387436	80.60910567099887	-75.50937936624476	-110.38495960135262	-75.50937936624554	-89.75117396183781	84.63723948905334	-110.3849596013527	84.63723948905272	113.43830277471473	
0.6611863789513567	127.71459682903938	-68.13933865358341	-103.72929939739652	-68.13933865358432	-67.34669152984742	89.65471953347392	-103.7292993973965	89.65471953347331	141.0148122532242	
0.7162852438639697	190.0803716512695	-58.98148276055116	-92.33667175517658	-58.981482760552204	-43.65648271740501	82.41862086461995	-92.33667175517648	82.41862086461947	172.67280830864848	
0.7713841087765828	267.64815348362583	-50.65581047160134	-76.69712977019445	-50.65581047160252	-16.958950997176185	66.0050054817348	-76.69712977019434	66.00500548173446	204.92953431179	
0.8264829736891959	355.66550042528047	-45.87641020940485	-58.26546729352649	-45.876410209406174	13.551221553116552	44.89860497606383	-58.265467293526434	44.89860497606366	233.6775840755233	
0.8815818386018089	443.3545783252325	-46.89021602528222	-38.75087804284806	-46.89021602528363	46.69100305353217	23.03632494847199	-38.750878042848086	23.03632494847197	255.08361079292484	
0.936680703514422	515.0898384094185	-54.76989713505786	-19.499229624568684	-54.76989713505933	78.7819301703652	2.435211462100699	-19.499229624568777	2.435211462100762	266.2930732204367	
0.9917795684270351	553.7774627380729	-68.70983328727516	-1.3531973524747594	-68.7098332872766	103.69155622607062	-16.89013561420979	-1.3531973524748517	-16.890135614209722	265.95738163434845	
1.0468784333396481	545.7393686787178	-85.5648373626328	15.21376669984637	-85.56483736263411	114.46505911185751	-35.84107882852979	15.213766699846339	-35.841078828529795	254.55428433782652	
1.101977298252261	484.8645686187022	-100.55155797148063	29.98599930031253	-100.55155797148171	106.44059052137797	-54.84650477584164	29.985999300312592	-54.846504775841744	234.3251754069524	
1.1570761631648743	374.78770641242374	-108.96331330632634	43.030944614099575	-108.96331330632712	81.03358431328084	-73.04848433620386	43.030944614099724	-73.04848433620407	208.81165795409316	
1.2121750280774872	228.50841954944846	-108.07692921570839	54.6784730617424	-108.07692921570883	47.440205411643205	-88.47798045787428	54.67847306174259	-88.4779804578746	181.88421392177418	
1.2672738929901004	66.10189144829717	-98.55613485315376	65.26918776954719	-98.55613485315388	20.21296471467457	-98.8029289800717	65.26918776954734	-98.802928980072	156.6333744498703	
1.3223727579027134	-88.87962427308213	-84.36367262454607	74.81331142097726	-84.3636726245459	13.64384238241017	-102.21206133460899	74.81331142097731	-102.21206133460919	134.35395654910434	
1.3774716228153265	-213.92446339743105	-71.18521975267568	82.926487147946	-71.1852197526753	36.05707247753156	-97.92085638272583	82.92648714794598	-97.92085638272584	114.11750110399299	
1.4325704877279395	-291.8389753829133	-63.936675113696225	89.20174944436599	-63.9366751136957	87.92822340018292	-86.34856402885327	89.20174944436584	-86.34856402885308	93.33368750440958	
1.4876693526405527	-314.7404422058879	-64.55928100925652	93.81170190443382	-64.55928100925593	164.05466110498904	-69.01649389048475	93.81170190443365	-69.01649389048436	69.42837666565384	
1.5427682175531656	-285.5002881770026	-71.046976276349	97.73519094563049	-71.04697627634835	257.5757729975013	-48.128200037898694	97.73519094563026	-48.12820003789816	41.9638522470271	
1.5978670824657788	-216.7429949604042	-78.29078492515524	102.2822198905929	-78.29078492515457	361.69806290690303	-25.93006385547086	102.2822198905926	-25.93006385547029	13.838158289283442	
1.6529659473783918	-125.89648272765496	-80.16534437121739	108.0128323736947	-80.16534437121672	469.2943447339777	-4.12849821656974	108.01283237369445	-4.128498216569221	-9.490787671379268	
1.708064812291005	-29.048471023772642	-71.37700905398972	113.80086954458915	-71.37700905398911	571.6627495095222	16.101368806270543	113.80086954458893	16.101368806270965	-22.542363332030924	
1.7631636772036179	64.2796103286684	-48.81009936357546	116.79580477648436	-48.81009936357491	659.4288687179477	33.37702339261803	116.7958047764842	33.377023392618334	-22.497758132455658	
1.8182625421162308	152.61540691002483	-12.06743067253236	113.44040958062979	-12.067430672531923	725.8435821059614	45.1334553890129	113.44040958062968	45.13345538901313	-10.278277253846287	
1.873361407028844	239.28390350749106	35.97092202002379	101.06828620100362	35.97092202002406	769.368817927936	47.4577546873897	101.06828620100356	47.457754687389865	10.506437637249121	
1.928460271941457	327.67008433441754	88.42972219912276	79.26475654625351	88.42972219912286	793.8988755653273	36.36355784827862	79.2647565462535	36.36355784827879	35.61355452805916	
1.9835591368540701	416.291759854166	134.73258752584334	50.38101592615941	134.73258752584331	805.121966138946	10.255662584678468	50.381015926159414	10.25566258467866	61.573648734463234	
2.038658001766683	498.1079429868968	162.43100037899404	19.045014738714215	162.43100037899393	807.6081239407467	-27.94574239597351	19.04501473871421	-27.94574239597327	85.8053376504696	
2.0937568666792963	563.0441723115217	161.11124922557437	-9.104259893431747	161.11124922557423	802.8820674756707	-70.67417706546442	-9.104259893431763	-70.67417706546414	106.08440174056518	
2.1488557315919095	602.4667518339638	126.56139918955425	-29.261144164027353	126.5613991895541	790.5583134097917	-108.22175088457365	-29.261144164027375	-108.22175088457335	120.33028018042785	
2.203954596504522	612.5240267600939	63.196384249335175	-39.29423661963804	63.196384249335104	769.6113558881752	-132.72991612390933	-39.29423661963804	-132.72991612390905	126.9977136035553	
2.2590534614171354	594.8032358982905	-16.783323695479098	-40.60805853187037	-16.78332369547914	739.4773003640787	-141.16828692100347	-40.608058531870356	-141.16828692100324	125.80444580272727	
2.3141523263297485	554.4490307158236	-97.44691673408525	-37.166561878252196	-97.44691673408533	699.8112868910678	-135.39466184655225	-37.16656187825213	-135.39466184655205	117.98684796458484	
2.3692511912423617	497.9849935956745	-164.24433645992832	-32.924042759358734	-164.24433645992838	650.8438082395924	-119.44693316565632	-32.92404275935867	-119.44693316565619	105.86788666091267	
2.4243500561549745	431.2691760388752	-207.61084624799295	-29.204364957339507	-207.61084624799307	593.3292925206446	-96.32440579507094	-29.204364957339394	-96.32440579507087	91.95186253855368	
2.4794489210675876	358.7028372877105	-223.7895618019271	-23.939786038869368	-223.78956180192722	528.4371430524266	-66.69972232772898	-23.93978603886926	-66.69972232772895	78.11722442218822	
2.534547785980201	282.72477195107797	-213.7701511079043	-13.362588814409307	-213.77015110790444	456.21644030328235	-30.302272848567423	-13.3625888144092	-30.302272848567412	65.2794002354155	
2.589646650892814	203.8761899398412	-181.80174106431727	5.017317552633591	-181.80174106431744	375.0296593354192	11.607321309768478	5.017317552633713	11.607321309768507	53.83284089496809	
2.6447455158054267	122.01060333242886	-134.59191982128218	30.243379077027612	-134.59191982128235	283.37369951278583	54.79710859192868	30.243379077027743	54.79710859192872	44.37320549034345	
2.69984438071804	37.97562772217144	-80.87286534705719	57.97428934680755	-80.87286534705731	183.1798718709434	92.7018454222256	57.97428934680771	92.70184542222566	38.31326232116302	
2.754943245630653	-45.0668616905709	-30.282064964182148	82.46124698169783	-30.282064964182233	82.16554235608464	118.47359948997288	82.46124698169798	118.47359948997298	37.85758789524764	
2.810042110543266	-122.03130646252464	8.723487325649305	98.91896150007794	8.723487325649295	-7.780733704825735	127.21501832041426	98.91896150007814	127.21501832041434	45.45672686773521	
2.865140975455879	-187.4121688347853	31.379673671174224	104.81043959539215	31.37967367117424	-75.10496316304823	117.66666937811529	104.81043959539235	117.66666937811536	62.86985112117485	
2.920239840368492	-237.09756496631428	37.76956224598645	99.83734074109526	37.76956224598649	-113.43842591610579	93.08145937927245	99.83734074109546	93.08145937927252	90.1771173353323	
2.9753387052811053	-268.8652423866641	32.18670615339003	85.54504806657839	32.18670615339008	-123.42722741310936	61.01827470381585	85.54504806657856	61.01827470381589	125.15999860394699	
3.030437570193718	-282.6933588681875	21.14073896321854	65.38210070501732	21.14073896321858	-112.00290362625118	31.516560969771476	65.38210070501744	31.516560969771504	163.18408941835207	
3.0855364351063312	-280.2857317020392	11.160073489383535	44.76602454788752	11.16007348938355	-89.72881114158622	13.803771554266469	44.76602454788762	13.803771554266469	197.94304931315415	
3.1406353000189444	-265.30635203744356	7.556612810578834	30.106962521700705	7.5566128105788195	-68.31289769760176	12.769439659528068	30.106962521700762	12.769439659528082	223.05929086224216	
3.1957341649315576	-242.64505275339977	13.574519492369092	26.327757698408348	13.574519492369049	-58.447672459167165	27.024260188948105	26.327757698408398	27.024260188948077	234.14518491589706	
3.2508330298441703	-217.3468389228163	29.73648814720368	34.07164777114742	29.736488147203616	-67.65009755858014	49.56055559145585	34.07164777114742	49.560555591455795	230.4599581763817	
3.3059318947567835	-193.34719861291043	53.07254379270668	48.750153691119436	53.07254379270661	-98.52416323039608	70.64240548226572	48.75015369111943	70.64240548226566	215.42197692055294	
3.3610307596693967	-172.37913566937058	76.69826425473846	62.56988407652949	76.69826425473835	-147.38819623736256	81.36685500823977	62.56988407652947	81.3668550082397	195.7628489876585	
3.41612962458201	-154.1083302974682	91.15304053478698	68.55440372136171	91.15304053478688	-205.4113502545166	76.33689642291907	68.5544037213617	76.33689642291901	179.60078808680822	
3.4712284894946226	-137.4495085821498	87.63859476174942	63.93077293100431	87.6385947617493	-260.7729822805874	54.61536481890208	63.930772931004284	54.61536481890202	174.23982975758258	
3.5263273544072358	-121.76882923320332	62.08969531982279	50.93740580461207	62.089695319822674	-301.96044405476647	19.105720378134617	50.93740580461203	19.105720378134546	184.25841085175674	
3.581426219319849	-107.60224078569101	17.95896347686272	34.89663766910416	17.9589634768626	-320.7362147142421	-24.861598392016347	34.89663766910414	-24.861598392016436	210.28736689490418	
3.6365250842324617	-96.40356624879729	-34.27218430386661	21.17292104518567	-34.27218430386671	-314.05531625637997	-70.90297897583838	21.172921045185653	-70.90297897583848	248.60253016703695	
3.691623949145075	-89.50115805949484	-80.90043525893921	13.019534909557805	-80.90043525893927	-284.08886238081277	-112.51153196938357	13.019534909557809	-112.51153196938367	291.76332597759034	
3.746722814057688	-87.45052714195742	-110.34031178832677	11.161553084186302	-110.34031178832682	-237.29714969053452	-143.85724084534644	11.161553084186343	-143.85724084534655	330.23721468468364	
3.801821678970301	-89.61468070588464	-117.31867449001038	14.609542344081719	-117.31867449001041	-182.48149206852239	-160.96925893184493	14.609542344081785	-160.96925893184508	354.69116531655243	
3.856920543882914	-94.67191492528474	-103.5683654317505	21.597655750694784	-103.5683654317505	-128.81083056214996	-163.2543576820956	21.597655750694862	-163.2543576820957	358.3653882159931	
3.912019408795527	-100.75850840334977	-75.45328110426306	29.919292540392536	-75.453281104263	-83.96378910212005	-154.2998785761418	29.919292540392654	-154.29987857614196	339.04482879092325	
3.9671182737081403	-105.51675512833037	-40.327193991109525	36.91749916113005	-40.32719399110945	-52.95218131631493	-140.9434012141552	36.91749916113019	-140.94340121415536	300.08096246617043	
4.0222171386207535	-105.7212172248102	-3.9224488892744773	39.734145197496595	-3.9224488892743636	-36.813445774165004	-130.3454782703399	39.734145197496744	-130.34547827034012	249.92119199231564	
4.077316003533366	-97.8473730970878	30.102189281518243	36.15292596038276	30.102189281518406	-32.17700680439148	-126.52213922635657	36.15292596038294	-126.52213922635683	199.70749014502016	
4.13241486844598	-80.32888584956656	59.258071050297225	25.699635325791707	59.258071050297424	-32.18181699331705	-128.53165132292867	25.699635325791895	-128.53165132292892	159.4419275797146	
4.187513733358593	-56.17648628853321	81.2079147732798	10.38091682259288	81.20791477328007	-28.948351564521246	-131.37191482795663	10.380916822593068	-131.37191482795689	134.20480072657978	
4.242612598271205	-34.105023444023	93.5597596715017	-5.474130265141872	93.55975967150192	-18.1654174336997	-129.05917857217042	-5.474130265141692	-129.05917857217068	122.64612230502252	
4.297711463183819	-25.765070657342676	94.43207162890276	-16.22026763352896	94.43207162890299	-2.185063481808619	-117.87520190214654	-16.220267633528813	-117.87520190214676	118.69689270808067	
4.352810328096432	-40.672476734372104	83.38892434065355	-16.377851019301147	83.38892434065376	9.955202456498213	-97.93818342018133	-16.377851019301048	-97.93818342018149	115.74145771419332	
4.407909193009044	-81.06130365257644	62.11507738283616	-2.361657606577541	62.11507738283634	7.426612851933536	-72.6109954706853	-2.361657606577502	-72.61099547068541	110.82769228118221	
4.463008057921658	-139.75839152760815	34.87250683386348	25.91421871987945	34.87250683386367	-15.927814957045513	-46.5831560691752	25.914218719879436	-46.583156069175246	106.40186762634268	
4.518106922834271	-202.2328112135104	8.317211484787983	63.925340592496624	8.317211484788125	-57.18824562154107	-23.81116982170126	63.92534059249657	-23.81116982170123	108.65008216441474	
4.5732057877468835	-251.36518515403154	-9.663337729540098	102.72856020945629	-9.663337729539979	-104.11443903122415	-6.033993803431577	102.72856020945622	-6.033993803431441	123.57679193606775	
4.628304652659497	-272.9064540935976	-12.415734990412403	131.12346084187874	-12.415734990412332	-139.52010986686952	7.959703965816281	131.12346084187868	7.959703965816518	153.22303960062047	
4.68340351757211	-259.92404904904373	2.7763497961765466	139.55678681334751	2.7763497961766035	-146.8675121148233	22.084454283370093	139.55678681334746	22.08445428337043	194.07944510358544	
4.738502382484723	-213.803308428092	32.66488026342328	124.0496335567565	32.66488026342335	-115.48976100371164	41.589235945811	124.04963355675646	41.58923594581141	238.24638877565752	
4.793601247397336	-141.73606064645756	68.54270143627075	88.04866283701153	68.54270143627086	-43.50162630962163	70.78056785371349	88.04866283701149	70.78056785371393	276.4639020692502	
4.848700112309949	-51.10942426018394	99.58176905150606	41.03828221869071	99.58176905150626	61.83593643596316	110.5971745209144	41.03828221869064	110.59717452091485	301.35962111260955	
4.9037989772225625	54.21505980639748	117.68119051128662	-5.412940123299258	117.68119051128686	185.37915429235278	157.4468224119968	-5.41294012329935	157.44682241199723	309.7067591423124	
4.958897842135175	174.85539733121408	120.74630491100567	-42.10108557358238	120.74630491100598	307.8276909658165	203.9921252170435	-42.101085573582495	203.99212521704385	303.1698723288598	
5.013996707047788	311.75356567756285	112.1460081931624	-65.27020739257401	112.14600819316277	410.60973202848095	241.5187725523906	-65.2702073925741	241.51877255239089	287.46059891183984	
5.069095571960402	460.8126948594633	96.77195419038138	-77.38438149541629	96.77195419038178	481.62408733536023	262.6751683444727	-77.38438149541639	262.6751683444729	270.17201208128154	
5.124194436873014	609.8593891116622	76.71047171804277	-85.44804358562526	76.71047171804322	519.131076223553	263.5803490303289	-85.4480435856253	263.580349030329	257.90759028762267	
5.179293301785628	740.6283343955411	50.16878994189656	-97.42256863524132	50.16878994189699	532.5903144840146	244.9342857302998	-97.42256863524133	244.93428573029996	253.99031312446368	
5.234392166698241	834.4802524246159	14.486315101885324	-118.04532875861922	14.486315101885758	538.6089423413578	212.08450067759367	-118.04532875861918	212.08450067759384	257.95954632573154	
5.289491031610853	879.0645556479996	-28.723498481384837	-145.95229983458208	-28.723498481384524	553.4800785675588	173.84230774822709	-145.95229983458202	173.84230774822726	267.0261037795998	
5.344589896523467	872.3077433064909	-71.12710613584457	-173.76616695045226	-71.12710613584436	585.101883184749	139.89903190158742	-173.76616695045212	139.89903190158768	278.3212385333352	
5.39968876143608	822.7039542344146	-100.00162185376357	-191.28841182686415	-100.00162185376344	628.1070576045202	117.31140645620044	-191.28841182686398	117.3114064562007	290.21862614920184	
5.4547876263486925	746.1700284562153	-104.36493375119522	-190.0691686586242	-104.36493375119518	666.3990382772822	107.76921648082063	-190.06916865862397	107.76921648082087	301.9008562732407	
5.509886491261306	660.1467084552544	-80.92821039662498	-166.85330031442135	-80.92821039662496	681.7117692517037	107.32577979129033	-166.85330031442112	107.32577979129053	311.8679098232061	
5.564985356173919	577.4686968157939	-36.03359756601295	-124.4742546642416	-36.03359756601296	663.9431347780165	108.90488688849919	-124.47425466424143	108.90488688849933	316.9849054856951	
5.620084221086532	502.33380361819076	17.274239334097206	-70.3620781151873	17.2742393340972	617.0705440509244	106.18399908216318	-70.36207811518719	106.18399908216324	313.0620033631151	
5.675183085999145	430.52993119716683	64.64195336432117	-13.983752877181121	64.64195336432113	556.3559504184659	96.50467974640797	-13.983752877181125	96.50467974640796	296.8106348178867	
5.730281950911758	354.3362272968016	94.94257280625177	35.59135760834326	94.94257280625165	499.07243063655017	81.34260464998773	35.591357608343124	81.34260464998766	267.8624957264994	
