# Stress in units of bar (10^5 Pa)
# z	Sxx	Sxy	Sxz	Syx	Syy	Syz	Szx	Szy	Szz
0.0	121.04579236284498	-99.82375722322985	-31.307475573350853	-99.82375722322983	67.43021936601049	-16.319465754945316	-31.307475573350914	-16.319465754945707	9.696457979187867	
0.05509886491261306	103.15086873160551	-94.38102252632197	-38.67985436967127	-94.38102252632203	37.01894282446722	-25.364279177642096	-38.6798543696714	-25.364279177642537	10.73722060070193	
0.11019772982522612	86.51452345682222	-89.20754399957231	-47.511080955590785	-89.20754399957245	5.517693343186252	-30.81705110455507	-47.51108095559098	-30.817051104555567	13.722273782328555	
0.16529659473783917	72.27127549387238	-84.62514577337966	-57.07137491587126	-84.62514577337993	-24.74059455621943	-32.34072335763798	-57.071374915871516	-32.34072335763849	18.79118972516099	
0.22039545965045224	61.502126844183906	-80.77996861360238	-66.59561831445937	-80.77996861360272	-51.68595628560934	-29.948525058342817	-66.59561831445966	-29.948525058343336	26.003403383257606	
0.2754943245630653	55.27346494904769	-77.68218731596461	-75.36581856287535	-77.68218731596511	-73.5099381801823	-24.00478197942667	-75.36581856287565	-24.004781979427186	35.347894761956	
0.33059318947567834	54.519136386478365	-75.27383160326222	-82.76125233525542	-75.27383160326279	-89.04379570915523	-15.207019757740643	-82.76125233525573	-15.207019757741158	46.74470153195867	
0.3856920543882914	60.08039100655952	-73.35213762225649	-88.29480124466043	-73.35213762225715	-97.71330465076502	-4.5283824523905345	-88.29480124466072	-4.528382452391037	60.082691301226525	
0.44079091930090447	72.45454059411645	-71.75588265660818	-91.61880609842073	-71.7558826566089	-99.56233580861127	6.859028160676979	-91.618806098421	6.859028160676493	75.1953353642031	
0.49588978421351754	91.96741227571373	-70.30759476779036	-92.51506232929009	-70.30759476779114	-95.10538792707456	17.711742504793335	-92.51506232929033	17.711742504792866	91.83725567738834	
0.5509886491261305	118.2932123258978	-68.93649682856322	-90.88593653606486	-68.9364968285641	-85.26901926829518	26.825719260224623	-90.88593653606506	26.825719260224176	109.6602561884627	
0.6060875140387436	150.60092581184995	-67.64508127982114	-86.73879646015757	-67.64508127982205	-71.13501222524675	33.19410958446598	-86.73879646015772	33.19410958446556	128.1753139581944	
0.6611863789513567	187.2796648463948	-66.58233215928713	-80.17941381701189	-66.58233215928809	-53.93249586131375	36.110685568532126	-80.179413817012	36.11068556853172	146.7098866204232	
0.7162852438639697	225.91817073745156	-65.96493345346995	-71.41244794384853	-65.96493345347098	-34.93250319565574	35.245856126286284	-71.41244794384862	35.24585612628594	164.44989607962117	
0.7713841087765828	263.34271538710243	-66.02737616296352	-60.7348929770704	-66.02737616296457	-15.36379874171361	30.640570691096865	-60.73489297707045	30.640570691096563	180.44882055494713	
0.8264829736891959	295.8519884013073	-66.92775298936479	-48.525986493550164	-66.92775298936587	3.5984028198263456	22.70617410652981	-48.525986493550185	22.706174106529545	193.74294706198856	
0.8815818386018089	319.556897162742	-68.71402686639945	-35.216383619811204	-68.7140268664005	21.02753818431121	12.118434287719515	-35.21638361981121	12.1184342877193	203.46015158436927	
0.936680703514422	330.8599007947728	-71.26281275560532	-21.252008602071076	-71.26281275560635	36.228312705030916	-0.2613722108540155	-21.252008602071072	-0.26137221085419604	208.93951077495004	
0.9917795684270351	327.10405189810655	-74.25516624459723	-7.078971516388793	-74.25516624459821	49.013158062379496	-13.477629058384752	-7.078971516388781	-13.477629058384903	209.80411798708607	
1.0468784333396481	306.98820236474734	-77.2913490287619	6.898269181312044	-77.29134902876277	59.7188782312614	-26.569275526521622	6.898269181312062	-26.569275526521757	205.99427554927064	
1.101977298252261	271.0851977007716	-79.90696214699175	20.34100186161274	-79.90696214699247	69.41830117042966	-38.614473584325864	20.34100186161276	-38.61447358432598	197.78180339113484	
1.1570761631648743	221.8351598436351	-81.70618707484698	33.00044298301135	-81.70618707484755	79.69204335530475	-48.7893572496918	33.00044298301136	-48.78935724969187	185.7087810159511	
1.2121750280774872	163.5620096494381	-82.41516255902643	44.70066111136863	-82.41516255902684	92.65838306411914	-56.40910128170968	44.700661111368646	-56.40910128170974	170.49623526785138	
1.2672738929901004	101.76934742379564	-81.85812547258593	55.31051666158952	-81.85812547258615	110.53884347400202	-60.98275038184238	55.31051666158951	-60.98275038184238	152.9681433377012	
1.3223727579027134	42.61228855592115	-80.03210489499794	64.75040988675647	-80.03210489499799	135.34932179392553	-62.24884245596192	64.75040988675644	-62.24884245596189	134.0025562469722	
1.3774716228153265	-7.9498203379014	-76.91337976735005	72.96967942543503	-76.91337976734995	168.4962374910734	-60.22478778495372	72.96967942543499	-60.22478778495363	114.48609008853096	
1.4325704877279395	-45.000235726235985	-72.43829632682176	79.8912039333228	-72.43829632682153	210.50271059395902	-55.20201751772034	79.89120393332271	-55.20201751772019	95.29339012143397	
1.4876693526405527	-64.9838138698891	-66.44140776690496	85.39635907484373	-66.44140776690463	261.0304041372822	-47.76386066711616	85.39635907484363	-47.763860667115964	77.30544426458422	
1.5427682175531656	-66.2983447289273	-58.63363755857611	89.32334982576299	-58.633637558575714	318.5175159918369	-38.75984331367707	89.32334982576286	-38.75984331367682	61.37822089214495	
1.5978670824657788	-49.15230268582396	-48.74866243718716	91.43591761642713	-48.748662437186724	380.63830296464175	-29.246111233066813	91.435917616427	-29.246111233066536	48.30421175159011	
1.6529659473783918	-15.329599999447025	-36.61558960638282	91.46226334549664	-36.615589606382386	444.52153045833165	-20.39272145618635	91.4622633454965	-20.392721456186045	38.749342434241235	
1.708064812291005	32.17815628715027	-22.382156168047324	89.14990492287451	-22.382156168046908	507.0991405457793	-13.349935986800668	89.14990492287438	-13.349935986800354	33.170037013801384	
1.7631636772036179	89.61972052574023	-6.7100943604362655	84.31962104786423	-6.710094360435917	565.3688197185509	-9.12747402007016	84.3196210478641	-9.127474020069842	31.70935154489748	
1.8182625421162308	152.91418458246812	9.244206260408415	76.95394915056343	9.24420626040874	616.8704859960899	-8.44233398980393	76.95394915056335	-8.442333989803627	34.164752013187375	
1.873361407028844	217.93801259657616	23.844962253871394	67.26850028506773	23.84496225387165	659.6176473904189	-11.595954315736307	67.26850028506765	-11.595954315736023	39.97893776550518	
1.928460271941457	280.80059385755715	35.15902053692562	55.72730138125654	35.159020536925794	692.3705218993312	-18.392883073441112	55.72730138125645	-18.392883073440842	48.282978779556515	
1.9835591368540701	337.9487116562929	41.29590390280002	43.02702062074016	41.29590390280013	714.4460561346483	-28.106939791588545	43.027020620740096	-28.10693979158828	57.98765397630932	
2.038658001766683	386.34618395592975	40.803339797492285	30.033332194017657	40.80333979749231	725.7016050611385	-39.5383006046421	30.03333219401761	-39.53830060464186	67.94190305490575	
2.0937568666792963	423.47469296485167	32.95957773021129	17.686814557833255	32.959577730211244	726.3184612160807	-51.16899518237362	17.686814557833248	-51.16899518237338	77.05501244164002	
2.1488557315919095	447.51928603621883	18.062809258512516	6.896932010604402	18.062809258512466	716.6916855326483	-61.35598367913739	6.896932010604413	-61.35598367913717	84.42691790546655	
2.203954596504522	457.43458676696565	-2.547066409573681	-1.5720041257382	-2.547066409573766	697.2878088180406	-68.5383476372983	-1.5720041257381716	-68.5383476372981	89.44612173019519	
2.2590534614171354	452.9717721440844	-26.630665471487582	-7.1655587533769705	-26.63066547148769	668.6324762602694	-71.48179920488393	-7.165558753376945	-71.48179920488374	91.8488664495741	
2.3141523263297485	434.50982958641043	-51.35503421060614	-9.573282780227377	-51.35503421060629	631.2946758444306	-69.42236586693613	-9.573282780227315	-69.42236586693598	91.71448362388	
2.3692511912423617	403.3136764957901	-73.81466595120071	-8.72969024219831	-73.81466595120084	585.9661760984911	-62.18512292472376	-8.72969024219826	-62.1851229247236	89.44550185682317	
2.4243500561549745	361.0450518267119	-91.39187853967502	-4.807933648270954	-91.39187853967516	533.3979062023669	-50.18990949598647	-4.807933648270867	-50.189909495986356	85.71358345478589	
2.4794489210675876	309.835307191629	-102.26555538805158	1.7986011098354524	-102.26555538805172	474.75418453214513	-34.40326356875004	1.7986011098355377	-34.40326356874995	81.35470477284808	
2.534547785980201	252.008089276239	-105.59008351728085	10.504136477345106	-105.59008351728099	411.3832814317392	-16.207315640055153	10.504136477345217	-16.20731564005507	77.31922312763632	
2.589646650892814	190.04674193360273	-101.57820553519164	20.55747939860761	-101.57820553519177	345.12128975149074	2.772983902015569	20.557479398607736	2.7729839020156417	74.56433517021767	
2.6447455158054267	126.48558895227335	-91.34490108201886	31.0805195058026	-91.34490108201898	278.03714606828214	20.87201789795298	31.080519505802727	20.872017897953032	73.94081630515927	
2.69984438071804	63.75034023345374	-76.64441542129835	41.15863004219441	-76.64441542129845	212.47868610906352	36.61341467145237	41.15863004219454	36.61341467145242	76.11910627701293	
2.754943245630653	4.097427733583803	-59.49778845003904	49.93933031304921	-59.497788450039096	150.69749369347954	48.917805000406375	49.93933031304933	48.917805000406425	81.50312755895905	
2.810042110543266	-50.38461950281069	-41.83605886062801	56.75653373315715	-41.83605886062807	94.72186890869025	57.244886929131866	56.75653373315727	57.24488692913188	90.1493849935109	
2.865140975455879	-97.94767317394351	-25.19246230307492	61.23296201090755	-25.19246230307497	45.91845916757421	61.61885720837479	61.23296201090768	61.618857208374806	101.72971553379934	
2.920239840368492	-137.38536205089895	-10.542918773687145	63.32055744236275	-10.542918773687187	4.974665497912326	62.58062301305701	63.320557442362855	62.580623013057036	115.56871593905005	
2.9753387052811053	-167.92144708718016	1.7136507984537328	63.30156701393162	1.7136507984537008	-28.346540413688203	61.01243428779696	63.30156701393174	61.01243428779697	130.69468941939869	
3.030437570193718	-189.42456653517195	11.632495471906633	61.70936622517695	11.632495471906601	-55.13435263081042	57.90451349294703	61.70936622517706	57.904513492947025	146.0434363003924	
3.0855364351063312	-202.28487142180205	19.517818862315078	59.19358422848659	19.51781886231504	-77.0597413887752	54.075136018000634	59.19358422848666	54.075136018000606	160.586164661389	
3.1406353000189444	-207.37205586857598	25.682816054012093	56.35506960355937	25.68281605401205	-96.06573883556948	49.99843635080073	56.35506960355944	49.9984363508007	173.53497484368683	
3.1957341649315576	-205.8999968034799	30.27972284714251	53.62525905092335	30.27972284714245	-113.85719574968405	45.67715483787377	53.62525905092339	45.67715483787372	184.49702998199626	
3.2508330298441703	-199.35706967508617	33.15414592090109	51.221506382903684	33.15414592090103	-131.68048571197514	40.67151031930025	51.22150638290371	40.6715103193002	193.55888927036122	
3.3059318947567835	-189.21381091672868	33.96034834444282	49.11912781817553	33.960348344442764	-149.9193309807694	34.254384414423896	49.11912781817553	34.254384414423825	201.23367450102066	
3.3610307596693967	-176.92678305749914	32.18768854093795	47.128867364239994	32.18768854093787	-168.24101044661708	25.64830446310163	47.12886736423999	25.648304463101557	208.3108372296734	
3.41612962458201	-163.6891163969056	27.48577571656608	45.0070427364158	27.485775716565996	-185.4003175754875	14.272314656597707	45.0070427364158	14.272314656597636	215.64762919300804	
3.4712284894946226	-150.59942607605728	19.839168642779597	42.587301222573515	19.839168642779526	-199.80258753825416	-0.03842403841586872	42.58730122257352	-0.038424038415950434	223.9045488187972	
3.5263273544072358	-138.40913504648137	9.677780722850642	39.85471347067102	9.677780722850564	-209.83042315873325	-16.951518879280794	39.85471347067102	-16.951518879280897	233.32532727432022	
3.581426219319849	-127.60589655743786	-1.9695397514653266	36.92012003005989	-1.9695397514653976	-214.03175780386562	-35.653258967723154	36.920120030059906	-35.65325896772325	243.60150490882896	
3.6365250842324617	-118.45530896038186	-13.696207005497117	33.99458070509233	-13.696207005497179	-211.61290456659881	-54.981276550825726	33.994580705092346	-54.98127655082584	253.87361423256314	
3.691623949145075	-110.97646141290042	-23.892659851894308	31.305984211408735	-23.892659851894372	-202.62372655279324	-73.65223585750186	31.305984211408763	-73.65223585750198	262.8868391546222	
3.746722814057688	-105.02352368666645	-31.03873768564221	29.033381612070244	-31.038737685642246	-187.8865766002341	-90.44943128767923	29.03338161207027	-90.44943128767937	269.2108383256058	
3.801821678970301	-100.31153624855017	-34.01658501865862	27.22493975849039	-34.01658501865863	-168.7406136776661	-104.41811401449684	27.22493975849045	-104.41811401449698	271.5849714905749	
3.856920543882914	-96.41051445874938	-32.32728926663755	25.793082991580913	-32.327289266637536	-146.89896951741443	-114.98009825178431	25.79308299158099	-114.98009825178448	269.1574541460881	
3.912019408795527	-93.05294232689712	-26.135492632605438	24.573597268845447	-26.13549263260538	-124.26588179703222	-121.94277517240687	24.57359726884554	-121.94277517240705	261.69443204305185	
3.9671182737081403	-90.11022929727103	-16.267854583689452	23.39775282532449	-16.26785458368937	-102.4738373795501	-125.42709919883868	23.3977528253246	-125.42709919883886	249.6316511326778	
4.0222171386207535	-87.60398978512225	-4.013556369183798	22.20531182136169	-4.013556369183696	-82.78681077709462	-125.72477515457675	22.2053118213618	-125.72477515457692	234.0299367898819	
4.077316003533366	-85.93209507079732	9.04776064508292	21.115812657459568	9.047760645083034	-66.18595704212333	-123.17654724272373	21.1158126574597	-123.17654724272391	216.3614965745228	
4.13241486844598	-85.69893293314776	21.402281152177544	20.436906179255427	21.402281152177686	-53.096032695390846	-118.08645190909407	20.436906179255555	-118.08645190909428	198.28527578490684	
4.187513733358593	-87.5874314425634	31.72903609948803	20.628336860600694	31.729036099488198	-43.78577596440421	-110.6650110119506	20.628336860600815	-110.66501101195075	181.41711244730845	
4.242612598271205	-92.08217819694079	39.217996725978935	22.19640477560399	39.2179967259791	-38.06997375556445	-101.0538979464418	22.19640477560411	-101.05389794644196	167.1596831137448	
4.297711463183819	-99.28052360800756	43.56946687244084	25.50395816300454	43.569466872441026	-35.555748545679094	-89.35361901549797	25.503958163004633	-89.35361901549807	156.56879119943747	
4.352810328096432	-108.63712213296293	45.10521883816813	30.609248224486908	45.105218838168305	-35.464896782199055	-75.62541893305438	30.609248224486983	-75.62541893305445	150.3534612379717	
4.407909193009044	-118.63637317984606	44.595305464046646	37.16257710101131	44.595305464046824	-36.457781091682165	-59.968143580328025	37.16257710101138	-59.96814358032805	148.87417004446922	
4.463008057921658	-127.2471589321795	43.1288603700263	44.36253518488996	43.12886037002647	-36.87872010611276	-42.506056845261725	44.36253518489	-42.506056845261696	152.1295249768547	
4.518106922834271	-131.57672178185004	41.86948453486891	51.032581187233895	41.8694845348691	-34.50614656091308	-23.35349006605191	51.032581187233916	-23.353490066051826	159.77591552864905	
4.5732057877468835	-128.57716326562294	41.78785549939888	55.82789384445479	41.787855499399036	-26.999601688035767	-2.6301336164331293	55.827893844454806	-2.6301336164330027	171.15348135829137	
4.628304652659497	-115.36868186067345	43.4819672018211	57.467871015247084	43.48196720182128	-12.077815511385012	19.521180451462193	57.4678710152471	19.521180451462378	185.30162305274192	
4.68340351757211	-89.6598420308885	47.01150365034448	54.96900526515695	47.01150365034465	11.924774269473602	42.87127035907189	54.96900526515694	42.87127035907213	201.02452047053023	
4.738502382484723	-50.008267044598824	51.90909792122584	47.863681670051534	51.90909792122603	45.82419470955088	67.03690810828928	47.863681670051506	67.03690810828954	217.03231036105217	
4.793601247397336	3.7616436094061925	57.217122333563374	36.25578367940679	57.21712233356359	89.27523010130105	91.38382632118403	36.25578367940676	91.38382632118429	232.0800713780308	
4.848700112309949	70.61863545663448	61.74837549763689	20.764305236689232	61.748375497637134	140.73557318894004	115.01617850307439	20.76430523668921	115.01617850307468	245.1692150869506	
4.9037989772225625	148.1774893906071	64.25722624226675	2.406888489943377	64.25722624226701	197.78213848971018	136.82889231936667	2.4068884899433414	136.828892319367	255.6910062052046	
4.958897842135175	233.01025695650145	63.71526297773899	-17.61964478774233	63.71526297773927	257.4068470103053	155.6181823499928	-17.61964478774233	155.61818234999305	263.48286471415656	
5.013996707047788	320.7501857796103	59.54656978452452	-38.108290285378104	59.54656978452483	316.55622613758106	170.2634446730766	-38.108290285378104	170.26344467307686	268.79450047197497	
5.069095571960402	406.4450574365389	51.745246892713325	-57.94845282722723	51.74524689271367	372.5223339730189	179.94686738658618	-57.94845282722723	179.9468673865864	272.1973894300806	
5.124194436873014	485.1068326852391	40.854825119254	-76.15700047143072	40.85482511925434	423.29485616055047	184.30508575263238	-76.1570004714307	184.30508575263258	274.40695836779366	
5.179293301785628	552.1118466040668	28.004244945104944	-91.84327902917944	28.004244945105242	467.4870909324917	183.49776505178045	-91.8432790291794	183.49776505178068	276.0812387455795	
5.234392166698241	603.62072142952	14.673830880302056	-104.16328426912379	14.673830880302312	504.38758064148476	178.18813275524752	-104.16328426912375	178.18813275524775	277.65949843099037	
5.289491031610853	636.9977772008789	2.5080018824912145	-112.31233415609042	2.5080018824914703	533.60532154386	169.40569984279247	-112.31233415609036	169.40569984279267	279.2487556712143	
5.344589896523467	651.0006147789109	-6.987197381683089	-115.58228166855187	-6.987197381682876	554.9933016694446	158.33425960752248	-115.58228166855179	158.33425960752268	280.62411260080677	
5.39968876143608	645.7358798793106	-12.727303169058274	-113.47073034617026	-12.727303169058125	568.3066432728173	146.1116170949683	-113.4707303461702	146.11161709496844	281.2687445117856	
5.4547876263486925	622.5839205171967	-14.341493295192144	-105.84964372478635	-14.341493295192052	573.3423165081276	133.67766187180771	-105.84964372478629	133.67766187180786	280.4894477860839	
5.509886491261306	583.6964022778129	-12.252600815739449	-93.10792519066038	-12.252600815739399	569.8610998133944	121.69298352157395	-93.10792519066032	121.69298352157406	277.5854455897602	
5.564985356173919	531.7732996655575	-7.701604626010859	-76.19577607577023	-7.701604626010884	557.835709624678	110.53997386548784	-76.1957760757702	110.53997386548795	272.0219007131591	
5.620084221086532	469.4998001327941	-2.538819451650106	-56.594593341074564	-2.5388194516501734	537.4853336323581	100.39603075846804	-56.594593341074564	100.3960307584681	263.5710047031228	
5.675183085999145	399.5988765273648	1.0736428090538546	-36.15548875658456	1.0736428090537409	509.25986092188504	91.35602938930992	-36.15548875658458	91.35602938930992	252.42445423389756	
5.730281950911758	324.41789577543653	1.0630101336437008	-16.851112759836738	1.0630101336435587	473.9304733294686	83.50284479188733	-16.85111275983677	83.5028447918873	239.23062426117934	
