# Stress in units of bar (10^5 Pa)
# z	Sxx	Sxy	Sxz	Syx	Syy	Syz	Szx	Szy	Szz
0.0	259.084261446658	102.48960191727515	-155.78342920321714	102.4896019172738	376.9580836990091	88.93108581983105	-155.78342920321774	88.93108581983128	219.68864788673255	
0.05181207926750371	226.9662977519913	61.9307023641574	-161.9611842129307	61.93070236415612	370.01340893359225	69.3347507430961	-161.96118421293124	69.3347507430963	210.2770739814174	
0.10362415853500742	203.34295903345583	20.672274246982777	-163.84415894811355	20.672274246981555	348.76741629598826	47.483775713196096	-163.84415894811403	47.48377571319623	197.7072770132666	
0.15543623780251115	189.8748849717748	-20.10831976221604	-161.1732041091925	-20.108319762217143	314.91023463920305	24.375712880205512	-161.1732041091929	24.37571288020557	182.6720181162488	
0.20724831707001484	187.06570568080295	-59.028969893548336	-154.0931256950404	-59.02896989354931	270.9958597818793	0.9384517459806112	-154.0931256950407	0.9384517459806094	166.0481011254862	
0.25906039633751854	194.01923916087597	-94.3536149329026	-143.10700753599104	-94.35361493290341	219.999376152759	-22.059002070708697	-143.10700753599127	-22.05900207070875	148.74616986145557	
0.3108724756050223	208.5618484469427	-124.13503129632787	-128.97497471175552	-124.13503129632852	165.2329557855702	-44.04580065667916	-128.97497471175566	-44.045800656679276	131.6266104451655	
0.362684554872526	227.25339644609934	-146.4829361134481	-112.60189548614916	-146.48293611344857	109.77467773687584	-64.67596484907612	-112.60189548614925	-64.67596484907628	115.42713401175043	
0.4144966341400297	246.09340989896447	-159.60926468191656	-94.95101340505263	-159.60926468191684	56.383274540038286	-83.77025953141512	-94.95101340505266	-83.77025953141528	100.7302086492027	
0.4663087134075334	260.7322002162343	-162.47108460847	-76.93315448995335	-162.47108460847005	7.405598074712017	-101.26603539212867	-76.93315448995335	-101.26603539212886	87.92739037416577	
0.5181207926750371	267.6536152275869	-154.73204113772437	-59.36945329191191	-154.73204113772425	-35.25073846160777	-117.14241912332669	-59.36945329191187	-117.14241912332689	77.22921724159991	
0.5699328719425408	264.03281676623055	-137.1218280175234	-42.96123016881136	-137.12182801752311	-70.11871918147179	-131.31355394758657	-42.9612301688113	-131.31355394758674	68.69708393445605	
0.6217449512100446	248.76105813456942	-111.4076045460746	-28.291800431482862	-111.407604546074	-96.2205117616552	-143.5699374997205	-28.291800431482773	-143.5699374997207	62.27514842696846	
0.6735570304775482	221.91396004426375	-80.28437460254926	-15.82257378478101	-80.28437460254841	-112.81775381559419	-153.5836635389821	-15.8225737847809	-153.58366353898228	57.85125407555271	
0.725369109745052	185.0078580510657	-46.98465137757289	-5.922169396062218	-46.98465137757188	-119.60025745048665	-160.90312785247187	-5.922169396062099	-160.9031278524721	55.34627911238906	
0.7771811890125556	140.403665137251	-14.881141813206451	1.1596651170086387	-14.881141813205316	-116.74771782034401	-165.03712633592943	1.1596651170087742	-165.03712633592968	54.79928251473967	
0.8289932682800594	91.1838882807294	12.904718732280713	5.30957557374889	12.904718732281893	-104.43866001091133	-165.57964020555164	5.309575573749024	-165.57964020555193	56.47013915307769	
0.8808053475475631	40.59585005275967	34.18062215797405	6.565194329225362	34.180622157975236	-83.35583339106739	-162.32461025913784	6.5651943292254895	-162.32461025913815	60.93667628761422	
0.9326174268150668	-8.114443752630564	47.652276530848866	5.174289766726348	47.65227653085	-54.252621635059484	-155.32150594901685	5.174289766726473	-155.3215059490172	69.13235994114689	
0.9844295060825705	-51.788320809007445	53.26588452569158	1.6165742976581257	53.265884525692606	-18.14172866231955	-144.97567020427456	1.6165742976582322	-144.975670204275	82.25725720811161	
1.0362415853500742	-87.92583545340896	51.97833722219332	-3.371533999631243	51.978337222194185	23.4726638200571	-132.00005383070558	-3.371533999631172	-132.00005383070604	101.62878198064413	
1.088053664617578	-114.35406170139832	45.672012615927926	-8.79332204703784	45.67201261592862	68.83973593618201	-117.3044969817537	-8.793322047037808	-117.3044969817541	128.44900410806252	
1.1398657438850817	-129.96810807058924	36.68454231906888	-13.51144824662375	36.6845423190694	115.4848808734184	-101.8825177473239	-13.511448246623777	-101.88251774732429	163.448275148798	
1.1916778231525853	-134.581700732973	27.514327597136088	-16.34989686650519	27.514327597136443	160.85738630575457	-86.70711707833101	-16.349896866505283	-86.70711707833134	206.52156900731822	
1.2434899024200892	-129.3879917604943	20.379189073798152	-16.201228258988472	20.37918907379839	201.80273980222645	-72.59819782723163	-16.201228258988642	-72.59819782723184	256.4119966227462	
1.2953019816875928	-116.91628235382089	16.698609917412913	-12.224678262516576	16.69860991741308	235.5565978099319	-60.17759954091866	-12.224678262516829	-60.17759954091878	310.58062985933367	
1.3471140609550964	-100.44078214737294	17.147469845095628	-3.992587526915874	17.147469845095742	260.25871377763116	-49.82649035661561	-3.992587526916231	-49.826490356615615	365.2643461742025	
1.3989261402226	-83.83875190036846	21.231510378805865	8.350891351226991	21.23151037880602	274.8591868409168	-41.73055925716084	8.350891351226554	-41.73055925716072	415.8092767485069	
1.450738219490104	-70.63718919582611	27.684769525659874	23.97635239673224	27.684769525660045	279.9128592225524	-35.912267048176695	23.976352396731684	-35.91226704817645	457.22380044642546	
1.5025502987576076	-63.46579501222055	34.520989138133444	41.40148029665553	34.52098913813363	277.08513189117355	-32.26085082288205	41.40148029665492	-32.26085082288169	484.89301110335134	
1.5543623780251112	-63.439299364454826	39.55497176836013	58.586682839571246	39.554971768360325	269.2677221089099	-30.566896929109763	58.58668283957056	-30.566896929109316	495.2759389300488	
1.606174457292615	-69.85632286517637	40.80061375922203	73.18958531114795	40.800613759222266	259.7686956347575	-30.505598555431803	73.18958531114723	-30.505598555431284	486.5127591138994	
1.6579865365601187	-80.38556191130712	36.89494216441946	82.90230448217599	36.89494216441971	251.65475247261287	-31.62019439471297	82.90230448217525	-31.620194394712435	458.8551850799998	
1.7097986158276224	-91.55991550507107	27.190307042388767	85.89672012284282	27.19030704238895	247.50009619216434	-33.301102072970686	85.89672012284213	-33.30110207297013	414.68154462102785	
1.7616106950951262	-99.39643111956485	12.00508716097606	81.25509871739925	12.005087160976181	248.87502398296482	-34.79918326006009	81.25509871739854	-34.79918326005952	358.25342470513624	
1.8134227743626299	-100.34143064673754	-7.797020871688403	69.24297449650346	-7.797020871688389	256.3332396856305	-35.25063383345069	69.24297449650284	-35.250633833450166	295.1405651505837	
1.8652348536301335	-91.92499245862075	-31.005197432280575	51.39221336708896	-31.005197432280642	269.57836504815737	-33.80362495856598	51.39221336708843	-33.80362495856548	231.480833200889	
1.9170469328976374	-73.26653852694204	-56.37038115736263	30.303534103675936	-56.37038115736277	287.7963195821013	-29.765604766091478	30.303534103675496	-29.765604766091016	173.17538137991295	
1.968859012165141	-45.115472652363614	-82.89930085560883	9.18891095715577	-82.89930085560901	309.89472305179925	-22.80467335751549	9.188910957155443	-22.80467335751505	125.15943747555497	
2.0206710914326447	-9.903712166422821	-109.72659741175738	-8.739405948783542	-109.72659741175762	334.8068451877534	-13.088324921722226	-8.739405948783713	-13.088324921721828	90.89282664335752	
2.0724831707001483	29.156278592987547	-136.28411011430006	-20.914061105679906	-136.2841101143003	361.55279398372056	-1.3877945634067288	-20.914061105680048	-1.387794563406345	72.05969419727876	
2.124295249967652	68.39546882310503	-161.91282791472014	-25.870217632392823	-161.91282791472037	389.3928634237497	10.914358263457004	-25.87021763239285	10.91435826345733	68.58355139666543	
2.176107329235156	104.71166561315925	-185.84716071366023	-23.470257444387233	-185.84716071366046	417.5171601364417	22.02974396095893	-23.47025744438714	22.029743960959227	78.84061863096491	
2.2279194085026597	135.94254482973892	-207.0935983418039	-14.790285596238839	-207.09359834180412	445.0703355572041	30.01916535383385	-14.790285596238718	30.019165353834097	100.10167745436576	
2.2797314877701633	161.3599688264912	-224.659413001786	-1.8081879719143998	-224.6594130017862	471.07963301136556	33.13840761742945	-1.8081879719142258	33.138407617429635	129.01301589467766	
2.331543567037667	181.7273261908644	-237.5669804392989	13.120901508331713	-237.5669804392991	494.2812887501288	30.195941489404376	13.120901508331904	30.19594148940446	162.12562625484128	
2.3833556463051706	198.90656086511945	-245.32151103772986	27.738205888879687	-245.32151103772998	513.1983893625106	20.780261004283524	27.738205888879854	20.78026100428356	196.38416689701825	
2.4351677255726742	215.44110407860947	-248.04670631034543	40.19530494201459	-248.0467063103455	526.0682443454322	5.3379898432653565	40.19530494201475	5.337989843265312	229.3956537712668	
2.4869798048401783	233.88141861781037	-246.54964133979277	49.29980549025148	-246.5496413397928	531.1251965215806	-14.964153518428839	49.2998054902516	-14.96415351842894	259.62359350834913	
2.538791884107682	256.0388309762821	-242.3276565342258	54.50136113520172	-242.3276565342258	526.7894752602498	-38.514433648477876	54.50136113520183	-38.51443364847808	286.3918209130851	
2.5906039633751856	282.6949992613546	-237.1272250688851	55.78490943624967	-237.1272250688851	511.94143965913315	-63.571370178534	55.78490943624977	-63.571370178534224	309.74850878737743	
2.6424160426426893	312.8836400588922	-232.72949146063738	53.60122569429345	-232.72949146063735	486.27416231586955	-88.55957385848195	53.60122569429357	-88.55957385848222	330.19479141024215	
2.694228121910193	344.3378871414674	-230.4765349264554	48.71670506593738	-230.47653492645532	450.4426506487175	-112.2756723598646	48.71670506593749	-112.27567235986488	348.35002764801465	
2.7460402011776965	373.28478825991317	-231.00223797235992	42.14500995440061	-231.00223797235986	406.1389702385825	-133.93082583125783	42.14500995440075	-133.93082583125812	364.657160956606	
2.7978522804452	395.3484316876051	-233.89704602429686	35.10367094786934	-233.89704602429674	355.9420460128522	-153.01988325636268	35.103670947869446	-153.01988325636293	379.20242680803364	
2.8496643597127043	405.8703293126978	-237.8585833560648	28.915719713094493	-237.85858335606474	302.9147826748741	-169.20873950249148	28.91571971309462	-169.20873950249177	391.586224877759	
2.901476438980208	400.95761936961395	-240.8334455525382	24.90584949501322	-240.8334455525381	250.3596675789696	-182.1278111103946	24.905849495013364	-182.12781111039484	400.98838068351137	
2.9532885182477115	377.8789374847228	-240.32847495150457	24.234574876313552	-240.32847495150446	200.83593685405523	-191.26211562297092	24.23457487631368	-191.2621156229711	406.34572397984095	
3.005100597515215	335.90161835348715	-233.97479915989882	27.738700834190695	-233.9747991598987	156.3923478159511	-195.9773020088037	27.738700834190848	-195.97730200880383	406.56236969986855	
3.056912676782719	276.16549703827195	-219.77450585467454	35.777450773539705	-219.77450585467452	117.77333947876332	-195.63477839729177	35.777450773539854	-195.63477839729188	400.7810838633657	
3.1087247560502225	202.0717189820088	-196.50395960984991	48.18794102683756	-196.50395960984986	84.86404907143191	-189.71657879043192	48.18794102683769	-189.716578790432	388.5934927235006	
3.1605368353177266	118.64434299397536	-163.91473226305422	64.27304526663373	-163.91473226305413	56.84507886485035	-178.07882284002974	64.27304526663383	-178.07882284002983	370.13789087092675	
3.21234891458523	31.752419764876397	-122.76639072340294	82.9009819009124	-122.76639072340288	32.23276396414003	-161.0909579293329	82.90098190091248	-161.0909579293329	346.0710775355063	
3.264160993852734	-52.133108424639296	-74.58852897201021	102.76501966184946	-74.58852897201018	9.833266812255548	-139.6676398027024	102.76501966184952	-139.66763980270244	317.552947601897	
3.3159730731202375	-127.24878744772872	-21.552983458939043	122.5348718729572	-21.552983458939007	-11.462212799246458	-115.22889952631115	122.53487187295727	-115.22889952631115	286.10121424177885	
3.367785152387741	-188.74406572982045	33.902136980919266	140.98778947460627	33.902136980919295	-31.817824725974436	-89.58659678788378	140.98778947460633	-89.58659678788378	253.45055323165997	
3.4195972316552448	-233.2185954324134	89.44898618253586	157.15825507146732	89.44898618253586	-51.20202815590222	-64.73370364182881	157.15825507146735	-64.73370364182882	221.342469196877	
3.4714093109227484	-259.2033346222273	142.85656264737003	170.3693116473686	142.85656264737003	-69.10752799188528	-42.672990810443466	170.3693116473686	-42.67299081044349	191.3701496862373	
3.5232213901902525	-266.5936451015373	192.3380309509749	180.2162714838742	192.33803095097494	-84.57279809924599	-25.1799467649789	180.21627148387418	-25.179946764978943	164.82520383340517	
3.575033469457756	-256.9264961157168	236.4752208042895	186.50433813227428	236.47522080428956	-96.94984064357087	-13.63967550026473	186.5043381322743	-13.639675500264767	142.52550160507906	
3.6268455487252598	-232.88590273740954	274.2225876443939	189.15974284093056	274.22258764439397	-105.84552865446389	-8.938597649909475	189.1597428409306	-8.93859764990955	124.74206691623496	
3.6786576279927634	-197.99127229175542	304.82789918196437	188.22264399369703	304.82789918196437	-111.3775466879186	-11.391780545273793	188.22264399369698	-11.39178054527385	111.16801547731606	
3.730469707260267	-156.57268769916737	327.7078913878301	183.86049870341432	327.7078913878301	-114.23099959008812	-20.692773380570046	183.86049870341432	-20.692773380570127	101.03698676193557	
3.7822817865277707	-113.0678734800703	342.55867167983274	176.47339676917386	342.55867167983274	-115.36396708769641	-35.92327811808418	176.47339676917383	-35.923278118084276	93.22819424763895	
3.834093865795275	-71.90529886206593	349.2000245265489	166.74931000850424	349.2000245265489	-115.9613238758405	-55.62235334427182	166.7493100085042	-55.62235334427193	86.59829451539454	
3.8859059450627784	-37.1028868003965	347.72655228179684	155.69742552940005	347.7265522817969	-117.01966087259069	-77.89653864433804	155.6974255294	-77.89653864433816	80.20227321609072	
3.937718024330282	-11.527219225775909	338.7007100212225	144.65314012612913	338.7007100212225	-119.1418539054948	-100.63804097213308	144.6531401261291	-100.6380409721332	73.54206444322983	
3.9895301035977857	3.1324254190313354	323.00047988359165	135.08458914926027	323.0004798835917	-122.13533543319002	-121.68769028532137	135.0845891492602	-121.68769028532151	66.61629593147356	
4.041342182865289	6.821919624305276	302.1202635579599	128.38451966568906	302.1202635579599	-125.0680189013431	-139.05205351413082	128.38451966568897	-139.05205351413096	59.88818370171158	
4.093154262132793	1.1033765052812043	277.83737230929603	125.63287252983669	277.837372309296	-126.50451383963384	-151.12356623351025	125.6328725298366	-151.1235662335104	54.20264453014153	
4.144966341400297	-10.951052325700346	252.0823498344457	127.39783458072485	252.08234983444567	-124.20947300771329	-156.84327426531547	127.3978345807248	-156.84327426531559	50.575488959039234	
4.1967784206678	-25.52758121702034	226.90640076652454	133.57544607507208	226.90640076652446	-116.14638495556287	-155.7972685825941	133.57544607507202	-155.79726858259423	49.99207928104565	
4.248590499935304	-38.11898024117197	203.93273375960194	143.33496787884823	203.93273375960186	-100.24972687979431	-148.1755408409992	143.33496787884812	-148.1755408409993	53.18350163827885	
4.3004025792028076	-44.56945149775825	184.17989956872964	155.21926672919588	184.17989956872952	-75.17429539282182	-134.75485925086716	155.21926672919577	-134.75485925086724	60.54052306215108	
4.352214658470312	-41.47841613930266	167.86095645957994	167.28770539925353	167.86095645957977	-40.44617433436838	-116.67991815152214	167.28770539925347	-116.6799181515222	72.00674620094796	
4.404026737737816	-26.46444912647168	154.55409941689982	177.42233779982155	154.55409941689967	3.301203719784148	-95.31074200978968	177.42233779982143	-95.31074200978973	87.04533226060482	
4.455838817005319	1.6603599463753937	143.00485272549835	183.5639975861493	143.00485272549815	54.37101731082639	-72.08842752875421	183.56399758614924	-72.08842752875422	104.60162545305396	
4.507650896272823	42.727953501510285	131.65426400333152	183.9962176992064	131.6542640033313	110.16518202858822	-48.44579049891669	183.9962176992064	-48.445790498916736	123.21718931627187	
4.559462975540327	95.52765933702125	118.84013591220425	177.60204286612708	118.840135912204	167.38349563020583	-25.776354163944692	177.60204286612708	-25.776354163944713	141.17055658113102	
4.61127505480783	157.97197311673472	103.04402800413145	164.00315514811777	103.04402800413118	222.67765327598923	-5.470354064955981	164.0031551481178	-5.470354064956025	156.78935952843113	
4.663087134075334	227.33123866338912	83.18490730883602	143.73460888613786	83.18490730883573	272.7660569313708	11.06220481783065	143.7346088861379	11.06220481783061	168.7768333198755	
4.714899213342838	300.5214958012286	58.703936624277574	118.22939839052731	58.703936624277304	315.23587161074545	22.368646125141044	118.22939839052735	22.368646125141023	176.56550677488661	
4.766711292610341	374.0702642633295	29.622065844237078	89.70305404950477	29.622065844236793	348.30447785209185	27.066086998071466	89.70305404950481	27.066086998071448	180.53787529828992	
4.818523371877845	444.2956869898458	-3.670793615084662	60.992767504879524	-3.6707936150849534	371.2011735207683	24.066328216712222	60.99276750487961	24.066328216712183	182.0935740659602	
4.8703354511453485	507.3617878940692	-40.45151453245112	35.211078798631576	-40.45151453245145	384.0421160434007	12.846166649948515	35.21107879863168	12.846166649948486	183.40670878628777	
4.922147530412852	559.3413384242691	-79.8106736301733	15.338934825002447	-79.81067363017361	387.38286080540877	-6.290008722220989	15.338934825002543	-6.290008722221046	186.94438885601699	
4.973959609680357	596.3923381053637	-120.8014895235346	3.8627186031342973	-120.80148952353488	382.10327776297373	-32.0241082350132	3.862718603134425	-32.02410823501326	194.9031822858562	
5.02577168894786	615.154276739587	-162.43341358100213	2.3530642255682466	-162.4334135810024	368.9830110420591	-62.057416625787894	2.3530642255683993	-62.05741662578794	208.58864107736375	
5.077583768215364	612.9211602244652	-203.72618653444812	11.209661770830259	-203.7261865344484	348.55417323164454	-93.34714059992861	11.209661770830408	-93.34714059992865	227.9880647309585	
5.129395847482868	588.1503505108635	-243.70918841370084	29.516705603989507	-243.7091884137011	321.05006276997864	-122.57888721186993	29.516705603989692	-122.57888721187001	251.7105271147034	
5.181207926750371	540.8156678734383	-281.48978065840845	55.098521696194126	-281.48978065840873	286.6693644553838	-146.74538241237798	55.098521696194325	-146.745382412378	277.14862522007786	
5.233020006017875	472.3078245899852	-316.3538546661811	84.7378535107511	-316.3538546661813	245.66039826054833	-163.65244308736885	84.73785351075132	-163.6524430873689	300.97061276407396	
5.2848320852853785	385.6721270445256	-347.69051526443474	114.63567908178464	-347.69051526443485	198.75788153540728	-172.3084059777256	114.63567908178487	-172.30840597772567	319.78674985631056	
5.336644164552882	284.99716962378534	-375.05945579737136	140.90224209841648	-375.0594557973714	147.26024727989437	-173.04967390569817	140.90224209841676	-173.0496739056982	330.80662199519634	
5.388456243820386	175.14584517800057	-398.1862055277079	160.0503047040446	-398.1862055277079	93.01588088688135	-167.37655325804428	160.05030470404495	-167.37655325804423	332.31921325616935	
