# Stress in units of bar (10^5 Pa)
# z	Sxx	Sxy	Sxz	Syx	Syy	Syz	Szx	Szy	Szz
0.0	-75.58044193396671	440.20547450173717	22.026039890878213	440.2054745017384	240.03424166209527	-35.666724211885075	22.02603989087801	-35.66672421188447	98.63040726018001	
0.05211040248451859	-72.36065186130048	444.2221041441861	54.78022200780083	444.2221041441876	244.9989884298309	-25.530415847523408	54.78022200780052	-25.530415847522715	87.85806751608023	
0.10422080496903718	-68.14472260490629	437.89709043194165	76.39863281321823	437.8970904319431	248.9249215822776	-10.227200254824638	76.39863281321782	-10.227200254823863	81.52300394940501	
0.15633120745355578	-66.4250302217647	421.0585792941161	86.79740493967714	421.05857929411735	249.51840363272368	8.240478090155102	86.7974049396766	8.240478090155932	77.76585522495007	
0.20844160993807437	-69.50708174606814	394.5740835155507	87.136352762514	394.57408351555165	243.9060600088477	27.88266674463968	87.13635276251331	27.882666744640535	73.60653945356222	
0.26055201242259296	-78.37447655258552	359.6111259327869	79.47518568915642	359.6111259327877	228.34098097028996	47.03757132805793	79.47518568915564	47.03757132805875	65.88217621773232	
0.31266241490711155	-92.03626159545927	317.02361897559643	66.32615352730562	317.02361897559695	199.58744744496246	64.51181462489396	66.32615352730477	64.5118146248947	52.27002579360049	
0.36477281739163014	-107.76826531897615	266.78995538425437	50.32387185488004	266.78995538425454	156.04140558420698	79.54886090019882	50.32387185487916	79.54886090019944	32.20179083163458	
0.41688321987614874	-121.66467056174602	208.49119374894133	33.969582713059154	208.4911937489412	98.565807361513	91.69703852245436	33.96958271305826	91.69703852245482	7.319031296546625	
0.46899362236066733	-129.29620063915195	142.07159485083417	19.5493852398966	142.07159485083372	31.185957403660346	100.674673686087	19.54938523989574	100.6746736860873	-18.69588969003395	
0.5211040248451859	-127.35609530793306	68.84273748794564	8.995950591375461	68.84273748794499	-39.84889775446467	106.30438251531513	8.995950591374624	106.30438251531528	-40.89595545789089	
0.5732144273297045	-114.20608989963918	-7.762073112337617	3.688804967275111	-7.762073112338356	-107.18265352366078	108.55924196301699	3.688804967274301	108.559241963017	-54.2663919637024	
0.6253248298142231	-91.51454006767031	-82.43474981256736	4.203084608868679	-82.43474981256819	-164.5480248407656	107.62275864195144	4.203084608867911	107.62275864195139	-54.98815776763023	
0.6774352322987417	-64.1772612451422	-149.03059513398102	10.099114096816638	-149.03059513398176	-208.51876404116274	103.96503816758262	10.099114096815878	103.96503816758255	-41.48262489030238	
0.7295456347832603	-39.728512369866905	-201.76548534306474	19.926061731313833	-201.76548534306542	-239.14120273133574	98.39667958412782	19.9260617313131	98.39667958412775	-14.826832790000203	
0.7816560372677789	-27.23302424663052	-236.81847331995658	31.538105283902116	-236.81847331995712	-260.03081442071476	92.02204296304727	31.5381052839014	92.02204296304723	21.521129626887543	
0.8337664397522975	-34.85948087421434	-252.67255353055384	42.68047140546438	-252.67255353055404	-276.8514467739583	86.17728376248277	42.68047140546368	86.17728376248276	62.60150321812419	
0.8858768422368161	-67.9107708768461	-250.3177936885328	51.600120851830646	-250.31779368853273	-295.5956382375874	82.32577973369776	51.60012085182994	82.32577973369783	103.16004377446183	
0.9379872447213347	-127.28965812958393	-232.51829414516962	57.45180573074309	-232.5182941451693	-320.9999787602063	81.87814439945487	57.45180573074239	81.87814439945497	138.84155863579974	
0.9900976472058532	-208.6966384402432	-203.00237506085722	60.39364062938923	-203.0023750608567	-354.73839683575255	85.95488441381033	60.393640629388514	85.95488441381049	166.99760933166874	
1.0422080496903718	-304.03047183891056	-165.702148877295	61.28441028849802	-165.70214887729435	-396.1877370881739	95.12972145055788	61.28441028849732	95.12972145055807	186.83915694244786	
1.0943184521748903	-402.56596699659156	-124.30581709449825	61.16563725531526	-124.30581709449748	-442.1576394674716	109.08894428298402	61.165637255314536	109.08894428298422	198.9939048050792	
1.146428854659409	-494.0117170819423	-82.02542131585918	60.761996783192245	-82.02542131585838	-488.5434975967553	126.43155518233061	60.76199678319156	126.43155518233083	204.67898566946738	
1.1985392571439277	-570.649908387504	-41.29109135323466	60.214448873245786	-41.29109135323393	-531.3938619289082	144.71174188233203	60.21444887324516	144.7117418823322	204.83772248630703	
1.2506496596284462	-628.462344261186	-3.407412996545048	59.28902140926809	-3.4074129965442665	-567.5373858308786	160.6740479801773	59.28902140926756	160.67404798017753	199.6556422466439	
1.3027600621129647	-667.3454712853813	31.30243818147143	57.754683218238014	31.30243818147222	-594.9780202366087	170.7854085432827	57.7546832182376	170.78540854328284	188.74355834213844	
1.3548704645974834	-689.1614031907438	63.76802758455455	55.7766020604946	63.76802758455539	-612.0736007210041	171.98175860980598	55.77660206049436	171.98175860980612	171.86040708787888	
1.406980867082002	-695.9623351665916	95.78146618584144	54.209567567415746	95.78146618584238	-617.3974408522524	162.42302185970203	54.20956756741569	162.42302185970212	149.76153856399452	
1.4590912695665206	-687.9457802346568	129.17093640624182	54.5438678536068	129.17093640624284	-608.9232797085708	142.04030769224494	54.54386785360693	142.04030769224505	124.75956863788232	
1.511201672051039	-662.6641334130959	165.23446384687554	58.50395500297025	165.2344638468767	-584.4595403870571	112.76651751790314	58.503955002970585	112.76651751790327	100.46144692417997	
1.5633120745355578	-616.2210374142546	204.37297982740392	67.4792560491316	204.37297982740515	-542.4732692482496	78.40203084042972	67.47925604913212	78.40203084042986	80.66300201585356	
1.6154224770200765	-545.4665531914358	245.36932680718613	82.05119179900393	245.3693268071874	-482.95612125082437	44.04729088899399	82.0511917990046	44.047290888994155	67.8942685222874	
1.667532879504595	-450.2240697365545	285.9319861395039	101.67736888684708	285.9319861395053	-407.98139413649176	15.319935278475253	101.67736888684789	15.319935278475432	62.19595322366003	
1.7196432819891134	-334.86970964413774	322.68048750100854	124.70589620385125	322.68048750100985	-321.3442588897451	-2.571718899959116	124.70589620385212	-2.57171889995891	60.78390285800255	
1.7717536844736321	-207.97711462155252	351.88199412654393	148.64744051748508	351.88199412654524	-227.21893616490252	-5.686821191109928	148.64744051748602	-5.686821191109686	58.94691922541457	
1.8238640869581508	-80.39691889245216	370.2180100889112	170.5773131066017	370.2180100889124	-128.96409095131605	8.005434226234556	170.5773131066027	8.005434226234772	51.74693290203324	
1.8759744894426693	37.52119676047474	375.3848079721386	187.63775063288878	375.3848079721398	-27.868865236767988	38.3523796143549	187.63775063288975	38.35237961435513	35.947503906050535	
1.9280848919271878	138.19061311173297	366.73385980656997	197.5492841826619	366.7338598065708	76.21148814943822	83.01172772097532	197.54928418266286	83.01172772097553	11.413652883083994	
1.9801952944117065	218.29584782198822	345.48993767948167	199.01597391785535	345.4899376794826	184.47195288769225	137.84111425273133	199.0159739178563	137.84111425273156	-18.70311359305743	
2.032305696896225	278.3081800410394	314.67665343716186	192.10713499392256	314.6766534371625	297.1215790052098	197.50097319151936	192.1071349939234	197.5009731915196	-48.794133348615034	
2.0844160993807437	321.01228782058826	278.7298570868924	178.37229506312798	278.7298570868928	412.0537441044813	256.241564138466	178.37229506312883	256.2415641384663	-72.54118130965435	
2.136526501865262	349.9069794253689	242.75455111903105	160.64732689641292	242.7545511190313	524.1538782694764	308.6942794456883	160.6473268964137	308.6942794456886	-84.83201155377031	
2.1886369043497806	367.92663843493796	211.83342769069915	142.56901260264362	211.8334276906992	625.7130651407683	350.6058364295639	142.56901260264436	350.6058364295642	-83.21436766687074	
2.2407473068342996	377.0040528349158	190.19599820974128	127.86117327376736	190.19599820974116	707.7212084367025	379.24913515535445	127.86117327376795	379.2491351553548	-68.49367653012202	
2.292857709318818	378.42236801926964	180.4021382722398	119.53510255254469	180.40213827223965	761.6755274849211	393.4888440441497	119.53510255254518	393.48884404415	-44.279497462305265	
2.3449681118033365	373.8849989150615	182.8684450590061	119.26777067972714	182.86844505900575	781.7866501436022	393.48765800670265	119.26777067972748	393.48765800670293	-15.73098982050847	
2.3970785142878555	365.51868998543046	195.5237155878576	127.08924197876405	195.52371558785725	766.4242107344571	380.22675207629186	127.08924197876433	380.2267520762922	11.972644195961493	
2.449188916772374	355.8201611722202	213.9491810253217	141.44721524188245	213.94918102532125	718.8287583680554	355.04296630890127	141.44721524188267	355.0429663089015	34.86640346549063	
2.5012993192568924	347.0161432964881	232.16925992679785	159.63089048502155	232.1692599267974	646.69890282553	319.4438397789744	159.63089048502167	319.4438397789746	50.76981455146182	
2.553409721741411	340.2542012880616	243.73184947567444	178.41511071424213	243.7318494756741	560.3625469760336	275.1357212775623	178.41511071424222	275.13572127756237	59.088657071400874	
2.6055201242259294	335.3797751738174	243.1567715986207	194.80927193508023	243.15677159862037	470.1011612383972	224.28962666641934	194.80927193508032	224.28962666641942	60.10465615374842	
2.6576305267104483	331.48873265986197	227.1236855134103	206.59246680334476	227.12368551341	383.9438134234122	169.75376366992845	206.59246680334485	169.75376366992845	54.1663495378662	
2.709740929194967	327.41322839446076	194.7534133562785	212.6111330460385	194.7534133562783	305.66265159770035	115.0626345838854	212.61113304603856	115.06263458388538	41.18269853473629	
2.7618513316794853	322.70465957655927	147.79358483911093	212.75707294474063	147.7935848391108	235.45317684691892	64.12106628005353	212.75707294474068	64.12106628005347	20.59357752169406	
2.813961734164004	317.37986092459687	89.75741743597314	207.63948822755418	89.75741743597307	170.74553844498737	20.722390105386314	207.63948822755424	20.722390105386253	-8.311802237740075	
2.8660721366485227	311.81032808355394	25.043064284702762	198.08785725353565	25.04306428470275	108.70145935369378	-12.076282822977541	198.08785725353565	-12.076282822977621	-45.82572258535062	
2.918182539133041	306.09073557618865	-41.88550317640427	184.7490752295178	-41.88550317640423	47.941735587422585	-32.478588070444836	184.7490752295178	-32.47858807044494	-91.18420998274637	
2.9702929416175596	299.1519882428379	-107.02869106046627	167.8705707518769	-107.0286910604662	-10.610989412423976	-40.189497896085996	167.8705707518768	-40.189497896086074	-142.11995959595117	
3.022403344102078	289.1122866866466	-166.8832953802119	147.53397497047985	-166.8832953802118	-64.21736594816286	-36.42897167540355	147.5339749704798	-36.42897167540363	-194.5981480488264	
3.074513746586597	273.062114707192	-218.64118947933224	124.15001164552484	-218.64118947933207	-109.77231521515334	-23.73347632737415	124.15001164552477	-23.73347632737427	-242.9991150678055	
3.1266241490711155	248.29914132495435	-259.94452437681286	98.82502193903193	-259.94452437681275	-144.9350650400702	-5.526629274415373	98.82502193903183	-5.526629274415501	-280.8313564654082	
3.178734551555634	212.58958957170123	-288.7162090488607	73.45868055882275	-288.7162090488606	-169.46355996659048	14.350227256668582	73.45868055882265	14.35022725666845	-302.1160876193504	
3.230844954040153	164.50455722735808	-303.68224505589745	50.414074489294464	-303.6822450558974	-184.84891673253586	32.068535946129124	50.41407448929439	32.068535946128996	-303.0101831815598	
3.2829553565246714	104.09331233205263	-304.38716729012924	31.85505296327488	-304.3871672901291	-193.68891215664996	44.11757145436683	31.855052963274794	44.117571454366725	-283.2650009415382	
3.33506575900919	32.553916043061236	-291.1315852551693	19.095143382505995	-291.1315852551692	-198.48653657445766	47.589815939700955	19.095143382505952	47.58981593970086	-246.87741097429023	
3.3871761614937084	-47.87248905848332	-265.0351658700596	12.29216388140468	-265.0351658700596	-200.70750139666924	40.356026503830165	12.292163881404665	40.356026503830094	-201.52143637477835	
3.439286563978227	-134.02372925247408	-227.81211636954959	10.62469089658524	-227.81211636954953	-200.50540139877157	21.395480170099653	10.624690896585262	21.395480170099624	-156.8002069771186	
3.4913969664627458	-222.03563209515005	-181.52466002274028	12.950532526348205	-181.52466002274025	-197.0698247293327	-8.872231732261206	12.950532526348226	-8.872231732261206	-121.88512144196949	
3.5435073689472643	-307.4511980660954	-128.70598156825957	18.51559909355972	-128.70598156825957	-189.3316353908343	-48.25434223878124	18.51559909355975	-48.254342238781234	-103.23804067418612	
3.5956177714317827	-385.27189001535294	-72.46541449588833	27.3512508712409	-72.46541449588834	-176.9964969037021	-92.71929046790746	27.351250871240936	-92.71929046790743	-103.26187754036609	
3.6477281739163017	-449.9427153781152	-16.66841570085083	40.21917783429781	-16.66841570085083	-160.81610031403972	-136.63307376911425	40.21917783429784	-136.63307376911422	-120.11115475294253	
3.69983857640082	-495.70522580838974	34.049245125451954	58.09320350254863	34.04924512545196	-142.5738579686104	-173.56938530976646	58.09320350254866	-173.56938530976637	-148.50803953460635	
3.7519489788853386	-516.895990597166	74.88663033924566	81.36396745235707	74.88663033924567	-124.06493603885306	-197.43466602952174	81.3639674523571	-197.43466602952174	-181.33403801453952	
3.804059381369857	-509.33315677122386	101.62794915224612	109.15573791459249	101.62794915224606	-106.10155089944982	-203.66205761624337	109.15573791459252	-203.66205761624332	-211.18847856538434	
3.8561697838543756	-471.12397135251126	112.01377712890573	138.99781194921195	112.0137771289057	-87.56539674611405	-190.07378960331187	138.99781194921195	-190.0737896033118	-231.59769624917178	
3.9082801863388945	-404.1673500100107	106.43539697934283	166.94874091763774	106.4353969793428	-65.67894852513565	-157.29780721293798	166.9487409176377	-157.29780721293798	-237.78361121513495	
3.960390588823413	-314.14869798007567	88.09974602036058	188.18370598445884	88.09974602036051	-36.64872337429773	-108.5327189088961	188.1837059844588	-108.5327189088961	-226.985598702086	
4.012500991307932	-210.53021146047837	62.52967335834331	197.95855542965683	62.52967335834321	2.6594996729430846	-48.83119980178631	197.95855542965677	-48.83119980178634	-198.63689291615054	
4.06461139379245	-104.99194574343083	36.13817680506833	192.64665169693706	36.13817680506823	53.16632992043634	15.813442981974346	192.646651696937	15.813442981974344	-154.4011836606195	
4.116721796276969	-9.451233396415258	14.536431008782387	170.69657627676463	14.536431008782301	112.6955749451733	79.19662226645693	170.69657627676457	79.19662226645691	-98.07790807177905	
4.168832198761487	65.5886475656238	1.0948160643767926	133.17699488363044	1.0948160643766667	175.87131444838423	135.4518108694911	133.17699488363039	135.45181086949117	-35.30035230985128	
4.220942601246006	113.39246310620655	-3.639712017149776	83.76962691739926	-3.639712017149904	235.61200054853308	179.3857496568523	83.76962691739922	179.38574965685234	27.220847670352562	
4.273053003730524	131.3564215683392	-2.1004319658364494	28.043550713792776	-2.1004319658365773	284.8692386352119	206.83039995009545	28.043550713792733	206.8303999500955	82.88017111000755	
4.325163406215043	121.58841608038625	1.4326150784015539	-27.684713579312827	1.4326150784014082	318.5709188153628	215.04449573455116	-27.684713579312866	215.04449573455128	126.61374246482268	
4.377273808699561	90.3307124848506	2.0278514161632923	-77.62744688412278	2.0278514161631325	335.34283945200735	203.2903839750885	-77.62744688412283	203.29038397508862	156.1821699149713	
4.429384211184081	47.16355691350036	-4.450556693498303	-117.66385051165051	-4.450556693498477	337.4933009797963	173.27826260094312	-117.66385051165054	173.27826260094326	172.84110946374656	
4.481494613668599	3.0634102398784364	-20.385805230268716	-145.9407428587005	-20.385805230268865	330.8166015312852	129.21517000559186	-145.9407428587006	129.215170005592	181.07407276797392	
4.533605016153118	-31.002220994569484	-45.60051991566803	-162.9035953688105	-45.60051991566823	323.26976344301283	77.38341846289222	-162.90359536881056	77.38341846289238	187.3076692581214	
4.585715418637636	-45.6346856990383	-77.20904043779215	-170.85099540828776	-77.20904043779228	323.35946133507423	25.116300639002787	-170.85099540828784	25.116300639002944	197.95995372274814	
4.637825821122155	-34.83166167772444	-109.96579410251333	-173.22953914406008	-109.96579410251344	338.50725778777235	-20.53006458497632	-173.22953914406017	-20.530064584976195	217.4707706518911	
4.689936223606673	3.0119946087929748	-137.066038388241	-173.873539373709	-137.06603838824108	373.9375116745173	-54.091650521822075	-173.8735393737091	-54.091650521821954	247.03276273299886	
4.7420466260911915	65.28031129781256	-151.2620944896045	-176.20874690489512	-151.26209448960455	431.7185688361217	-72.68106080794934	-176.20874690489524	-72.68106080794924	284.39181174643966	
4.794157028575711	145.1781233742161	-146.53750976452233	-182.57123304582012	-146.5375097645224	510.611333368756	-76.3620750105361	-182.57123304582012	-76.36207501053602	324.8574054521013	
4.846267431060229	233.09363910844243	-119.64438155479598	-193.6956608998457	-119.6443815547961	605.5163942546751	-67.81096444789776	-193.69566089984573	-67.8109644478977	363.0064835658369	
4.898377833544748	317.9083267823296	-71.56033382225975	-208.47163691623857	-71.56033382225982	708.3363577747737	-51.336026102551195	-208.4716369162386	-51.33602610255113	394.4741120343864	
4.950488236029266	388.93870184022484	-7.937228932738805	-224.17196685876763	-7.93722893273889	808.5095207636559	-31.60056774986503	-224.17196685876763	-31.600567749865007	417.1863119624009	
5.002598638513785	437.53916781579255	61.395624309045246	-237.16480387489867	61.395624309045246	894.5980536098929	-12.199311374001873	-237.16480387489867	-12.199311374001887	431.69761480286843	
5.054709040998303	459.09566060697784	124.29544132111792	-244.06600485682	124.29544132111786	956.0539795084344	5.292369002944817	-244.06600485682003	5.292369002944746	440.5991900945647	
5.106819443482822	453.9141200366175	168.90222138623116	-242.87226309668804	168.90222138623128	985.0285804443369	21.647327677732658	-242.87226309668813	21.647327677732513	447.24659268976376	
5.15892984596734	427.58227600449754	186.7386169144307	-233.85074123634797	186.73861691443085	977.3170385641756	39.51375659467009	-233.85074123634817	39.51375659466986	454.3165693550859	
5.211040248451859	389.76615621249067	174.8784523083197	-219.7790817149416	174.87845230832005	933.1590406553989	62.36080255271118	-219.77908171494187	62.360802552710894	462.6274611661953	
5.263150650936378	351.57114913589805	136.9330313945134	-205.28758402224085	136.933031394514	856.218250285377	93.09057930537979	-205.28758402224113	93.0905793053794	470.62286724916476	
5.315261053420897	322.9866426400703	82.20374675991668	-195.56050626096126	82.20374675991752	753.1373220043254	132.8697003124285	-195.5605062609616	132.86970031242808	474.79305844610803	
5.367371455905415	309.9242385481374	23.41073385501184	-194.75912285256712	23.410733855012978	631.7036620736231	180.53317335641398	-194.75912285256754	180.53317335641344	470.8080310886893	
5.419481858389934	313.08029305485843	-26.41909912267304	-204.576751462385	-26.419099122671675	500.02667826161166	232.7143227427601	-204.57675146238543	232.71432274275952	455.1412752457287	
