# Stress in units of bar (10^5 Pa)
# z	Sxx	Sxy	Sxz	Syx	Syy	Syz	Szx	Szy	Szz
0.0	152.46651683072997	-216.8194679247426	-23.998863850494903	-216.8194679247431	-100.24069372871759	-73.7687886071441	-23.998863850494963	-73.76878860714308	-330.9052281570537	
0.05176942286669748	174.04822355239986	-252.574662545592	-25.687020864142397	-252.57466254559222	-86.8582732870533	-69.57023173545403	-25.687020864142426	-69.57023173545272	-302.5176546210608	
0.10353884573339496	181.91457281731056	-272.61926727711096	-21.59341192180248	-272.61926727711113	-67.62512496871136	-59.652585826645975	-21.593411921802478	-59.652585826644525	-270.4341537947681	
0.15530826860009245	173.98485300293132	-274.2822505818848	-8.404237641918563	-274.282250581885	-36.77120443649635	-46.69659988117799	-8.404237641918538	-46.696599881176624	-233.3579047513788	
0.20707769146678992	149.92743906453558	-257.11756799375206	14.035566168905815	-257.11756799375246	5.6480317920067336	-31.973796383226958	14.035566168905877	-31.973796383225874	-190.0085433497432	
0.2588471143334874	108.78582876045377	-221.21419727443075	42.910375833716564	-221.21419727443146	53.43098880978356	-14.8086987688296	42.9103758337167	-14.808698768828874	-141.2256178309762	
0.3106165372001849	48.78210337079749	-167.24558065931186	73.8034898715195	-167.2455806593129	98.03074191343414	6.209461876910499	73.80348987151974	6.209461876910883	-90.49209744318166	
0.36238596006688234	-31.020804665140858	-98.06239490505264	102.31291500625977	-98.06239490505408	132.36016395813436	31.230933291021483	102.3129150062602	31.230933291021643	-42.48976815453026	
0.41415538293357984	-128.19052614322794	-20.02039735218841	125.1472218396566	-20.02039735218996	153.92215260500723	57.79285607212755	125.14722183965716	57.79285607212763	-0.7825300958325894	
0.46592480580027734	-235.12563771261694	57.53292413573747	140.38565243964487	57.53292413573591	165.7026806958196	81.22959332338377	140.3856524396456	81.22959332338391	33.772590275823184	
0.5176942286669748	-340.3363773102491	124.59731662420594	147.13814689004641	124.5973166242047	174.49300739144175	96.54394485552919	147.1381468900472	96.54394485552953	62.873936647200466	
0.5694636515336723	-431.6026649239678	173.0960336695532	144.9037399331187	173.09603366955247	187.22132444038945	100.49848874907941	144.90373993311943	100.4984887490799	89.0303060733806	
0.6212330744003698	-498.63997516246127	198.4279060810974	132.91875004203365	198.4279060810972	207.235223058221	92.5958035775299	132.9187500420342	92.59580357753048	113.41227772718337	
0.6730024972670673	-534.6377639629075	200.49231007404103	110.00935149103316	200.4923100740412	230.86846768182374	74.62375706452532	110.00935149103337	74.6237570645259	134.61519789039605	
0.7247719201337647	-536.2646527468371	183.68681243413408	75.3608423087476	183.68681243413454	248.11177894625834	49.29483035203461	75.36084230874741	49.29483035203509	149.135865475986	
0.7765413430004622	-503.4722730220643	156.99793189978803	30.102043165771807	156.99793189978854	245.4960478097937	19.00784020083048	30.102043165771168	19.007840200830827	153.44903190108374	
0.8283107658671597	-440.4663106241373	132.22612432792477	-21.164098830671623	132.2261243279251	212.269785643449	-14.509265319392092	-21.16409883067265	-14.509265319391897	146.60779946057565	
0.8800801887338572	-356.4920672224356	121.16454737327518	-70.31402526174898	121.16454737327516	145.7119619357795	-49.79510160504397	-70.31402526175029	-49.7951016050439	131.8948201490712	
0.9318496116005547	-265.43285933428933	131.88725141283805	-107.76870165279479	131.88725141283766	54.38422350343764	-84.96013909667515	-107.76870165279632	-84.9601390966752	116.30615573679901	
0.9836190344672521	-183.81123805697698	165.98033831160782	-125.90517394295993	165.98033831160717	-44.382922861676406	-117.4171849408704	-125.90517394296153	-117.41718494087058	107.8653161671844	
1.0353884573339496	-126.0917998436667	218.59997828033	-122.10015170238637	218.59997828032925	-130.64301208959148	-144.17191095911133	-122.10015170238799	-144.17191095911164	111.96067977618901	
1.0871578802006472	-100.66968511332317	280.6511442401314	-99.84776889395808	280.6511442401306	-191.42122401720684	-162.33319465920943	-99.84776889395961	-162.33319465920994	128.7845501142841	
1.1389273030673446	-106.08103173105695	342.31213473936646	-67.625464728286	342.3121347393657	-226.74840596714785	-169.60777397213465	-67.62546472828735	-169.60777397213533	153.33313375891476	
1.190696725934042	-131.2598119326632	396.1727222659298	-36.28237181141704	396.17272226592917	-249.59468984517542	-164.58316405968867	-36.282371811418166	-164.58316405968947	177.9602656325844	
1.2424661488007396	-159.52077724884143	437.7698764805838	-16.0042284409207	437.76987648058326	-277.0785243015711	-147.00062249927117	-16.004228440921576	-147.00062249927205	195.94010874541036	
1.294235571667437	-175.57640614192735	465.3948511323368	-13.658975837499511	465.3948511323364	-318.70752122986323	-118.14971235307789	-13.658975837500087	-118.14971235307868	204.12376808274695	
1.3460049945341346	-171.56690085857736	479.0626992870813	-30.919843816470383	479.06269928708065	-368.0714747938649	-81.3156413260082	-30.91984381647063	-81.31564132600897	203.4641212024925	
1.397774417400832	-148.98944253067722	480.6946139600684	-63.38578980820776	480.6946139600677	-403.28513638046894	-42.09205856233515	-63.38578980820776	-42.09205856233587	197.4532860972602	
1.4495438402675294	-114.39660503194011	475.04797530693645	-101.22877100521247	475.04797530693565	-396.99167644708996	-7.978174434516578	-101.22877100521222	-7.978174434517321	189.62063271343695	
1.501313263134227	-73.88556730524078	469.39643180980545	-131.53389225900352	469.3964318098044	-329.3043042542041	13.057943413186955	-131.5338922590031	13.057943413186202	181.00797502050335	
1.5530826860009244	-29.415056006006466	471.11553033615075	-141.66568221213112	471.11553033614945	-198.1363345578087	15.108441354499504	-141.66568221213063	15.108441354498694	168.76862584557986	
1.604852108867622	20.064644741954396	484.1834513196754	-122.62221143858878	484.18345131967385	-19.89224680753472	-2.9463464005700644	-122.6222114385883	-2.946346400570903	146.72695054843336	
1.6566215317343194	74.24347468005982	506.05848954248125	-71.42759330716872	506.0584895424796	177.78112154226494	-36.22856112023329	-71.42759330716831	-36.22856112023412	108.14043131082278	
1.7083909546010168	129.17971252769848	527.8794513797267	7.7323975367046565	527.8794513797251	367.24034635590874	-75.45189713649637	7.732397536704944	-75.45189713649712	49.89845229118191	
1.7601603774677144	177.67106178885393	538.5495489990249	103.78264496633548	538.5495489990233	528.8295740250277	-110.89476196860875	103.78264496633568	-110.8947619686094	-24.160007268692432	
1.8119298003344118	213.7594157791794	529.8755278899243	200.73275609037677	529.8755278899229	653.2479513266726	-136.40715210044795	200.7327560903769	-136.4071521004484	-103.03076799834332	
1.8636992232011094	237.18561815268833	499.95493797877	281.66693716555795	499.9549379787689	736.8759705865091	-151.05863772300563	281.6669371655581	-151.05863772300594	-172.0655184342711	
1.9154686460678068	254.70231856096802	453.0661353897001	333.67868282540485	453.0661353896995	777.7301075658648	-157.7121148293923	333.6786828254052	-157.71211482939248	-218.05535614630517	
1.9672380689345041	279.0859197899438	396.00204733269936	351.63854150660063	396.002047332699	775.6127418346579	-159.68392664797028	351.638541506601	-159.68392664797028	-232.81698614642156	
2.0190074918012018	325.3811472514024	335.0831446130488	338.7627350047742	335.08314461304883	737.5219791970412	-157.81059244851815	338.7627350047746	-157.810592448518	-213.0443181495663	
2.070776914667899	404.6422071743839	274.1678937705262	303.7881461087381	274.1678937705265	681.7053956061642	-149.61234970082833	303.7881461087385	-149.61234970082808	-157.602237970131	
2.1225463375345965	518.1542403745807	215.10809491882063	256.729000104142	215.108094918821	634.031849569803	-131.00012113098865	256.7290001041424	-131.0001211309883	-65.63240866647713	
2.1743157604012944	652.9479881317789	158.01849050743485	205.63929910292592	158.01849050743527	616.6046464615845	-99.51391861838762	205.6392991029263	-99.51391861838727	62.013872935449605	
2.2260851832679918	783.5090634164618	101.74735775606692	155.6602502875348	101.7473577560672	634.4604757392494	-57.115962795603686	155.66025028753512	-57.11596279560334	218.41891667705124	
2.277854606134689	879.4503993074912	43.98999060010203	109.92047901416431	43.989990600102146	670.3455758673742	-10.312130781429019	109.92047901416458	-10.312130781428696	386.6496217609519	
2.3296240290013865	915.2898651034083	-17.850710815300914	70.97451426428327	-17.850710815301085	690.8427986861989	32.71082374222641	70.97451426428346	32.710823742226694	540.2696634788028	
2.381393451868084	878.5192826351347	-84.54598490561712	41.52447170546925	-84.54598490561742	661.8039045006391	66.04334003892359	41.52447170546941	66.04334003892384	649.7037357874722	
2.4331628747347818	772.5727479195956	-152.37181882217067	23.928101387613534	-152.37181882217106	564.0165540130048	88.10878551025816	23.928101387613626	88.10878551025837	692.2052142008381	
2.484932297601479	616.6754285713757	-211.7646470826702	18.751195995062744	-211.76464708267068	403.3887603092495	100.35178539520726	18.75119599506278	100.35178539520746	660.9799170956205	
2.5367017204681765	442.33300968967717	-249.10379276363628	23.6710440413153	-249.1037927636368	209.90842347649783	104.25764541758875	23.67104404131535	104.25764541758892	569.4877590449962	
2.588471143334874	285.6383870203748	-252.57512472477327	34.050834673539995	-252.57512472477373	27.32965591905434	99.65979947651907	34.05083467354001	99.65979947651923	449.0987518405557	
2.6402405662015713	174.55898723100597	-219.17940014530154	45.246299328306456	-219.17940014530205	-104.69844749135729	85.82314518302614	45.246299328306456	85.82314518302627	340.8066374291422	
2.692009989068269	115.97027284031174	-159.69528959914786	54.99593587415488	-159.69528959914825	-168.23021806343036	63.963026324066526	54.99593587415487	63.96302632406668	283.2907094455477	
2.7437794119349666	91.77567271279543	-95.95423171935282	64.01783063077599	-95.95423171935325	-174.7250765860194	38.75203202700218	64.01783063077599	38.752032027002315	300.7821034361727	
2.795548834801664	70.92911353315924	-50.92031197661876	74.38750609215856	-50.92031197661916	-158.4782876237931	17.72653553561738	74.38750609215847	17.726535535617515	395.0174540553765	
2.8473182576683613	30.19684232994114	-36.5355342351752	87.10522122070644	-36.53553423517551	-156.86965559643838	8.946484286699924	87.10522122070633	8.946484286700086	544.4533782777814	
2.8990876805350587	-30.3274387220153	-47.443248203715214	101.06319555256985	-47.443248203715456	-190.80707519102543	18.073246876569357	101.06319555256974	18.073246876569492	711.4880120674866	
2.9508571034017566	-88.56339476358994	-64.62785312085171	114.06536796802025	-64.62785312085185	-255.29036473687074	45.811536394500095	114.06536796802018	45.811536394500266	854.991282242271	
3.002626526268454	-117.03061622071606	-66.37374898442796	124.91108578758462	-66.37374898442799	-325.81334470335605	86.54926405752869	124.91108578758457	86.54926405752884	942.6899991807418	
3.0543959491351513	-100.51445134256494	-39.051849494304044	134.78611580219666	-39.05184949430405	-374.3234183474316	129.0775544689696	134.78611580219663	129.07755446896974	958.7551777211992	
3.1061653720018487	-44.26364753983163	18.507354280814823	146.83849410481272	18.50735428081491	-384.96310579059843	159.9264292319583	146.83849410481275	159.92642923195842	904.6217607684486	
3.157934794868546	30.88343740210339	97.21197683335208	164.3544267887309	97.21197683335218	-360.07637637325223	168.51301444231137	164.35442678873093	168.5130144423115	794.771000326946	
3.209704217735244	100.71068296714432	183.33991468590042	189.14004131516558	183.3399146859005	-316.47395870276506	151.6205586321595	189.1400413151656	151.62055863215957	650.3962980926468	
3.2614736406019413	147.57250365380722	263.70899183242017	221.12715689298298	263.7089918324203	-275.1833147721182	114.69264504547499	221.12715689298307	114.69264504547502	493.49270858120184	
3.3132430634686387	165.29570947956887	327.80858635612975	259.1814639146042	327.8085863561298	-252.59766998181792	69.25270962407043	259.1814639146042	69.25270962407042	342.0814555921663	
3.365012486335336	158.46359485200227	368.2586689059941	301.9169637616036	368.2586689059942	-256.2823061843377	27.653720611835574	301.9169637616037	27.653720611835507	207.29928790107465	
3.4167819092020335	137.53972350251917	380.7553305286152	347.2933987317262	380.75533052861533	-286.071094197532	-2.3765808245182782	347.2933987317263	-2.376580824518342	93.09667561381416	
3.4685513320687313	113.83407870526462	365.0129237694798	391.2002665243524	365.0129237694799	-336.78265915126883	-21.11299985540958	391.2002665243525	-21.112999855409655	-1.5098396012225344	
3.5203207549354287	95.16961816572947	325.7264031887706	426.2630169164647	325.72640318877063	-399.06288082733244	-36.75562870047489	426.2630169164649	-36.755628700474986	-78.71057870684625	
3.572090177802126	84.29407923806912	272.11737635250745	442.60499618662755	272.1173763525075	-459.54173030883805	-61.69951202497288	442.6049961866278	-61.699512024972975	-138.98312545870107	
3.6238596006688235	79.74948080156389	215.242420198217	431.045589313164	215.24242019821702	-502.4900162492862	-106.43127848268784	431.0455893131642	-106.43127848268799	-180.73505770433337	
3.675629023535521	77.80808819625858	164.69639609970477	387.3355823856848	164.6963960997048	-514.9179553382311	-173.8657051663876	387.335582385685	-173.8657051663877	-202.3594838142901	
3.7273984464022187	73.85442749901233	126.1617180224191	315.15125873171587	126.16171802241911	-493.2308010686214	-256.84826152781216	315.151258731716	-256.8482615278123	-204.85591510841925	
3.779167869268916	63.576739555095116	101.81597013579709	226.07303227516144	101.8159701357971	-445.6692706422713	-340.2620498566645	226.07303227516155	-340.2620498566645	-192.76163746560263	
3.8309372921356135	44.12086094138004	92.10762155109005	136.04039776194142	92.10762155109003	-388.67350876078086	-406.494091300892	136.04039776194148	-406.49409130089214	-172.41894664504417	
3.882706715002311	15.698613736453384	96.3586901524027	59.94547643299726	96.35869015240266	-338.965085610213	-441.5804495072276	59.94547643299731	-441.5804495072278	-148.65681505601174	
3.9344761378690083	-17.33114014139379	111.55132488488022	6.845826699846718	111.55132488488012	-306.10128731413806	-439.43761435980764	6.845826699846704	-439.43761435980764	-122.2976842857162	
3.986245560735706	-47.07729756985761	130.6307583768986	-22.01225947024814	130.6307583768985	-290.21546002871463	-402.9496265088444	-22.01225947024819	-402.94962650884446	-90.27168339825475	
4.0380149836024035	-64.75395048501109	143.31563035756136	-31.85497798334521	143.3156303575613	-285.03440850529137	-342.19617387427104	-31.85497798334529	-342.19617387427104	-48.57218045703397	
4.089784406469101	-64.8014689139654	139.74931072684407	-31.06806029168266	139.749310726844	-282.7626520863995	-270.77845791813246	-31.068060291682773	-270.7784579181325	4.02504289153754	
4.141553829335798	-47.97369074825161	115.933171626674	-27.786505338870008	115.93317162667391	-278.02617705381124	-201.39434109252002	-27.786505338870136	-201.39434109252008	63.93778140872875	
4.193323252202496	-21.213641927029073	76.79432526706344	-27.917175895935237	76.79432526706337	-269.05048136760746	-142.29543938655644	-27.917175895935348	-142.29543938655647	123.81772998628665	
4.245092675069193	5.592099055747838	34.872961199035934	-34.74479057484017	34.87296119903586	-255.4564436520203	-96.07508128595015	-34.744790574840266	-96.07508128595015	175.89237482364044	
4.2968620979358905	25.413566216039698	4.46514063478952	-49.685014173745365	4.465140634789492	-235.18536080735333	-61.17315862564056	-49.68501417374543	-61.17315862564057	215.75915955239242	
4.348631520802589	37.88744230143142	-5.667114422197642	-73.24039354152573	-5.667114422197628	-202.85858983283984	-34.99776224003365	-73.24039354152578	-34.997762240033694	244.29880276325792	
4.400400943669286	50.631083809935085	2.6734752679817717	-105.37904957035684	2.6734752679818286	-150.8990388223658	-16.58610237707888	-105.37904957035684	-16.58610237707894	266.76923113713246	
4.4521703665359835	75.63889913272999	17.96746940796052	-145.1018054129687	17.967469407960635	-73.11240198348986	-7.524079214195407	-145.10180541296864	-7.524079214195481	289.6154599624683	
4.503939789402681	123.89527019305507	24.56358007087391	-189.2825841445854	24.563580070874096	31.41975932148155	-10.820631961740308	-189.28258414458537	-10.820631961740396	317.02414366575823	
4.555709212269378	201.34414510932567	10.761349965009444	-231.62410677357215	10.761349965009678	158.297870524857	-28.719104839509825	-231.62410677357212	-28.71910483950991	349.13387048828145	
4.607478635136076	306.70542085530695	-25.530673752137915	-263.1558264361695	-25.530673752137602	300.31307748127335	-60.51414689505075	-263.15582643616955	-60.51414689505082	382.54286784808284	
4.659248058002773	432.15567702421885	-76.46838115962325	-275.06842713990284	-76.46838115962302	450.08590745610104	-101.24023372316734	-275.06842713990284	-101.24023372316739	411.8093195819722	
4.7110174808694705	564.8624490641348	-128.00510564918807	-262.87320212701377	-128.0051056491878	599.7030516669279	-141.94456808166456	-262.87320212701377	-141.94456808166453	430.0746949963915	
4.762786903736168	688.965656751953	-166.27307540056555	-229.37698994403792	-166.2730754005653	738.621334344935	-171.75685964029128	-229.37698994403797	-171.7568596402912	428.4805637927101	
4.814556326602865	788.0152642035653	-182.3456655763199	-184.12689539375455	-182.3456655763198	852.1926523574739	-181.4425855823552	-184.1268953937546	-181.44258558235515	395.8584754475306	
4.8663257494695635	848.16263528668	-173.72861365865924	-139.29756880553455	-173.72861365865916	924.7337643093185	-167.00130425488055	-139.29756880553452	-167.0013042548805	321.2902801853352	
4.918095172336261	861.471170679098	-142.0578828635043	-104.34436814366786	-142.0578828635042	946.141926230596	-131.7523679411277	-104.34436814366781	-131.75236794112766	200.05657479552434	
4.969864595202958	827.464303490808	-89.97664931735034	-82.46416280199948	-89.97664931735025	918.0949833742725	-85.93323175709666	-82.46416280199935	-85.93323175709668	40.2577591628671	
5.021634018069656	753.3325705116793	-18.81503763426207	-70.35169605556742	-18.815037634261955	854.5190779683955	-43.81007198184677	-70.35169605556713	-43.81007198184683	-134.49322403809185	
5.073403440936353	651.3828652376716	69.63191282449822	-60.59844906764789	69.63191282449841	775.4185926743628	-19.25613379785488	-60.59844906764743	-19.25613379785497	-289.6352662520305	
5.1251728638030505	534.9505939239519	169.56844437040613	-45.02290120887733	169.56844437040644	697.8206670516859	-21.05245012384364	-45.02290120887669	-21.052450123843798	-390.83192053990643	
5.176942286669748	414.85429305804564	269.07318941691307	-17.543826682525907	269.0731894169136	629.5914460756597	-49.440264703716146	-17.5438266825251	-49.44026470371631	-417.2452923308669	
5.228711709536445	297.65066715508453	352.2148651299458	23.86342823984036	352.2148651299464	569.0500692776181	-95.84790867174532	23.863428239841284	-95.84790867174544	-370.4980001654738	
5.280481132403143	186.4231583835901	405.0882387817702	76.04483431456838	405.08823878177094	510.7119673768955	-146.5690541356605	76.04483431456929	-146.56905413566062	-274.73869825661313	
5.33225055526984	83.6485416959998	422.20565047650933	130.52221169687775	422.20565047651	451.0762250541389	-189.0454151851057	130.52221169687857	-189.0454151851057	-166.90753695349855	
5.384019978136538	-7.3578635631650355	408.7837752327963	174.81050957232088	408.7837752327967	390.76070801889284	-217.43951312093458	174.8105095723215	-217.43951312093452	-81.45451783307112	
