# Stress in units of bar (10^5 Pa)
# z	Sxx	Sxy	Sxz	Syx	Syy	Syz	Szx	Szy	Szz
0.0	270.67046685757407	-351.5360424204439	265.0693138439542	-351.53604242044497	-511.68323584950645	-112.52311006563868	265.06931384395324	-112.52311006563878	-90.32337001560896	
0.05025379403504058	364.5479862520484	-307.1611461505636	234.19483023639665	-307.1611461505643	-381.10078455224544	-53.64312517609059	234.1948302363955	-53.64312517609052	-62.52179697670861	
0.10050758807008116	457.16317385718685	-238.56030608752528	192.4726560108602	-238.5603060875255	-210.4659241288075	21.128692077460855	192.47265601085905	21.128692077461334	-32.33240642953586	
0.15076138210512174	530.1167698258905	-166.11622287678765	149.24008342831507	-166.11622287678728	-60.66163082753252	93.80268821555184	149.24008342831422	93.80268821555282	-8.680412906608614	
0.20101517614016232	580.5509191741758	-117.08482135599957	111.79115491288648	-117.08482135599886	-10.113827794790893	144.165077868847	111.7911549128859	144.16507786884836	-0.9749273596030257	
0.2512689701752029	597.6296532736953	-106.72593844501078	82.63345212804828	-106.72593844500993	-117.72403990823138	162.97259473711767	82.63345212804784	162.9725947371191	-15.661149978890702	
0.3015227642102435	577.9032428277228	-127.27856876771385	58.772148365026595	-127.27856876771293	-364.6267217676377	158.97222995146535	58.77214836502607	158.97222995146657	-48.432042338075604	
0.35177655824528403	547.2251865691337	-160.77933033269443	32.04363540462276	-160.7793303326933	-640.7228187957567	151.27299545924885	32.04363540462195	151.27299545924973	-83.74465537757368	
0.40203035228032463	535.5884512825212	-194.25179533596776	-6.220415804614452	-194.25179533596648	-821.3310983981755	152.0073540741185	-6.220415804615534	152.00735407411912	-104.62488785907553	
0.45228414631536523	535.7608182864229	-219.01166452794678	-56.81456016355625	-219.0116645279453	-867.5262082878896	156.86684581153008	-56.81456016355744	156.8668458115306	-103.95627496000265	
0.5025379403504058	508.64766413867164	-225.7903273360521	-109.70600653598885	-225.79032733605038	-834.3497385826273	154.40825017761222	-109.7060065359899	154.40825017761253	-88.07970678579142	
0.5527917343854464	421.5675072144587	-205.93866292361906	-151.7212059878517	-205.93866292361702	-786.7746978970921	141.22200982643045	-151.72120598785244	141.2220098264304	-70.52212413894112	
0.603045528420487	268.6714140301975	-158.7967859489774	-177.2542717864834	-158.796785948975	-735.5911792197975	122.71964342950771	-177.2542717864837	122.71964342950716	-60.69910086923892	
0.6532993224555276	71.17288075859017	-100.55726466120247	-191.41574823519903	-100.5572646612	-660.0882733471982	102.21677273289977	-191.41574823519895	102.2167727328987	-57.62668588238318	
0.7035531164905681	-121.1932359829194	-63.55895170659079	-204.00516565783323	-63.55895170658864	-556.8575706448721	77.57615014691687	-204.00516565783278	77.57615014691547	-54.419824651036016	
0.7538069105256087	-241.96487170692467	-79.27929679080944	-220.36817818837142	-79.27929679080799	-440.21452343981525	48.94669560860402	-220.36817818837073	48.946695608602354	-46.386666445233075	
0.8040607045606493	-249.15331136633696	-157.2390105548638	-236.78131279966829	-157.2390105548631	-314.1372797674241	22.492666558713793	-236.78131279966775	22.492666558712003	-32.333361575480815	
0.8543144985956899	-159.68931512633134	-273.86654062912817	-244.80011392737129	-273.86654062912817	-177.29636689913883	4.326419811874732	-244.800113927371	4.32641981187297	-10.757196305560864	
0.9045682926307305	-34.0021810037303	-381.38700565357817	-240.69371371553086	-381.3870056535786	-46.74840654010836	-4.999714151682772	-240.69371371553098	-4.999714151684273	20.789423388009507	
0.954822086665771	77.72091937566262	-435.66819617005115	-229.24977291358158	-435.66819617005154	52.92697748136209	-9.110811582599737	-229.24977291358198	-9.110811582600784	62.408907568937636	
1.0050758807008116	169.86192524915438	-424.3856802604595	-216.92125572948743	-424.3856802604595	122.70313870885388	-12.313576217057179	-216.9212557294879	-12.313576217057703	109.65677527707122	
1.0553296747358523	260.70521353021826	-374.0202670867491	-202.93582779182066	-374.0202670867488	183.40952212075587	-17.675834891658354	-202.935827791821	-17.67583489165847	154.94360526219344	
1.1055834687708928	349.92880310643113	-329.4523265003762	-180.48874257217688	-329.45232650037553	232.88756265612733	-25.114498506764257	-180.48874257217685	-25.114498506764235	191.67826434316893	
1.1558372628059332	404.7424182626512	-320.0573372354735	-147.5703085439512	-320.05733723547274	228.95406577270808	-29.75856432767747	-147.57030854395072	-29.7585643276776	217.66509790460282	
1.206091056840974	389.24109955776555	-340.55995255815907	-113.75236602779187	-340.55995255815867	128.76894413484078	-23.408268015502603	-113.7523660277911	-23.40826801550299	234.0054471929701	
1.2563448508760144	303.2995746818641	-364.71018640769574	-93.22035224387824	-364.7101864076958	-64.17310856055548	1.0065608859215036	-93.22035224387743	1.0065608859210142	241.0202674290236	
1.3065986449110552	187.88907136244603	-377.08572788319475	-91.27084072371844	-377.08572788319526	-298.5795297114157	45.550257405410285	-91.27084072371773	45.55025740540998	236.78786676897403	
1.3568524389460956	95.5286039939543	-386.0885076256333	-98.76069007673212	-386.08850762563407	-514.0370365471182	105.66177235511188	-98.7606900767314	105.66177235511196	220.09634280752584	
1.4071062329811361	59.605623710129485	-405.15849087652896	-99.59019734481639	-405.1584908765297	-669.3136950549367	169.47673302540488	-99.59019734481545	169.47673302540534	194.37354671782288	
1.4573600270161768	84.53655525903193	-432.0173963854281	-84.38558591678876	-432.0173963854286	-735.8147063515505	219.77796617927092	-84.3855859167876	219.77796617927157	167.8076165260476	
1.5076138210512173	154.9193183585503	-456.780102600342	-58.931361011995435	-456.7801026003424	-684.4219546726559	244.35572984816855	-58.931361011994255	244.3557298481693	148.32738406178484	
1.557867615086258	250.2815642772983	-479.903926135893	-40.18899663349938	-479.90392613589313	-503.7007290419601	250.56808952307114	-40.188996633498306	250.56808952307176	138.36231885472637	
1.6081214091212985	357.97253576692526	-504.4671122774206	-43.197911583054996	-504.4671122774202	-236.11997873881856	263.9936993043171	-43.19791158305406	263.9936993043176	135.89102430371474	
1.658375203156339	475.8140165793935	-515.1998549510205	-70.46600342023669	-515.1998549510198	30.100862454463112	302.2855335957029	-70.46600342023586	302.28553359570344	139.46767937056453	
1.7086289971913797	589.582743818173	-486.3739301496744	-112.08229347223306	-486.37393014967336	226.13539925098485	350.35692628398374	-112.08229347223241	350.3569262839845	149.56486989582194	
1.7588827912264202	649.0808726862392	-411.7867802679945	-153.10652122297006	-411.7867802679935	344.0708610820356	369.0664813214366	-153.10652122296955	369.0664813214375	165.2044186735967	
1.809136585261461	601.6837681399646	-313.8555418865113	-178.8217115138139	-313.8555418865103	407.75775227605425	329.8478503960363	-178.8217115138135	329.8478503960372	181.51982061372948	
1.8593903792965014	474.8482540869445	-222.4132052891504	-175.60809995503223	-222.41320528914974	437.5520300015694	238.2532682945862	-175.60809995503178	238.25326829458663	191.49797831475945	
1.909644173331542	398.9984113892836	-155.66644140039548	-134.50057998541322	-155.66644140039512	456.77163760614883	127.39946564923791	-134.50057998541277	127.39946564923778	189.73856295104696	
1.9598979673665826	501.3047617686367	-121.40970921982273	-60.998000213146085	-121.40970921982263	487.41824200769304	34.36992583969425	-60.99800021314577	34.36992583969376	173.63177350641928	
2.010151761401623	770.7648355834588	-122.0107881564299	20.2504260365245	-122.01078815643012	525.2464242509454	-18.869804738371812	20.2504260365245	-18.869804738372352	140.41806947439713	
2.0604055554366636	1066.4666578246051	-151.31612232805674	80.45743913550294	-151.31612232805736	563.8752683567159	-28.56341761862944	80.45743913550253	-28.563417618629742	85.69032903905335	
2.1106593494717045	1249.8839955868434	-196.37403806414696	111.63975367792955	-196.37403806414784	638.1351211361653	-0.013676116100226565	111.63975367792882	-0.013676116100166169	8.185614017224472	
2.160913143506745	1261.1654409991083	-250.04950190105308	131.58800610156467	-250.04950190105407	775.357440724508	61.49142975169272	131.58800610156385	61.49142975169313	-84.95226621223833	
2.2111669375417855	1080.313029277358	-312.1533853087296	160.4918112148612	-312.15338530873055	915.4718495474538	150.0160823462458	160.4918112148605	150.01608234624658	-180.9421807750362	
2.261420731576826	739.8658492467662	-363.9177837086657	198.2009911227969	-363.91778370866643	969.2022130728916	249.09335565335493	198.2009911227965	249.09335565335596	-266.97359192490046	
2.3116745256118665	416.82108088779273	-360.64695230694156	227.2378438700285	-360.6469523069421	959.7659573079287	326.8996912617871	227.2378438700284	326.89969126178823	-327.67224459523453	
2.3619283196469074	357.19690419720246	-283.09017187866465	230.3758280209301	-283.09017187866505	1012.9699458053803	350.3382569732526	230.37582802093021	350.3382569732537	-338.5521371019095	
2.412182113681948	587.6186234431577	-185.29481752403973	200.4819495071086	-185.2948175240401	1188.7171271888253	308.2511454715245	200.48194950710882	308.2511454715254	-271.67185680056537	
2.4624359077169884	831.4006825110437	-149.26169521113493	140.29718891812797	-149.26169521113542	1401.8153751065856	218.3592248574578	140.29718891812834	218.35922485745834	-120.11405372610427	
2.512689701752029	834.4988375515582	-191.67376603168628	62.77991749615768	-191.6737660316868	1515.4925008690857	112.87135116693105	62.77991749615812	112.8713511669314	76.90238722862736	
2.5629434957870694	649.6620757028122	-244.55094332770582	-5.6825245901590336	-244.5509433277064	1452.192377398345	22.341180326305523	-5.682524590158607	22.341180326305814	241.1517469304921	
2.6131972898221103	496.36236528802755	-226.3708812078758	-30.425455293299194	-226.3708812078762	1223.110169551443	-32.14887374041259	-30.425455293298867	-32.14887374041221	303.7079910664841	
2.663451083857151	469.0650573272531	-112.7304958998177	7.242879690816107	-112.73049589981794	906.0609496262621	-47.41013265980535	7.242879690816249	-47.410132659804894	253.62538434569765	
2.7137048778921913	476.5316399875787	49.61739628455941	83.22143488426227	49.61739628455933	588.2136133594852	-44.34103111484025	83.22143488426228	-44.34103111483975	137.1636867254801	
2.7639586719272318	389.6662771162049	173.52010736048888	139.43424606833113	173.5201073604888	310.84817804591694	-54.49314539656501	139.4342460683311	-54.49314539656455	12.415376396119967	
2.8142124659622723	182.8055207473283	182.47600048220022	131.53121426512052	182.4760004822002	85.73730053889665	-94.15689440787006	131.53121426512058	-94.15689440786966	-90.08247247959804	
2.864466259997313	-53.054578235565344	58.1682095709817	62.27753771604989	58.16820957098153	-57.2099519035824	-156.144625657188	62.27753771605002	-156.14462565718765	-168.88143986691128	
2.9147200540323537	-204.63803649753262	-140.73879139476077	-37.53764978649121	-140.73879139476097	-86.95512619506292	-223.5589173832439	-37.537649786491016	-223.55891738324374	-227.4470934366426	
2.964973848067394	-223.9338261173818	-309.32824027013623	-147.06481980153382	-309.3282402701366	-18.731244292948432	-279.34588033547766	-147.06481980153362	-279.34588033547755	-253.7243553475035	
3.0152276421024347	-143.16551179127165	-367.10053295739493	-261.84704371037077	-367.1005329573952	92.62031810452702	-306.34200140367614	-261.8470437103706	-306.34200140367614	-223.61246961054468	
3.065481436137475	-33.24971355783563	-309.64847467925415	-372.96922649726883	-309.6484746792544	190.55706827951536	-297.25406847457776	-372.9692264972687	-297.25406847457793	-124.50207211950593	
3.115735230172516	46.899322141193096	-191.8384371573918	-455.797392637165	-191.83843715739204	233.54294129529458	-269.3577397261238	-455.7973926371649	-269.35773972612395	26.293457184060607	
3.1659890242075566	82.38961474316213	-72.10284520718992	-480.22767038114034	-72.10284520719003	203.2082607704985	-255.14552016326252	-480.2276703811403	-255.14552016326263	186.1171682286993	
3.216242818242597	85.45047714425533	18.91136584522745	-428.2085618252313	18.911365845227323	118.56982623884373	-271.45764992097224	-428.2085618252313	-271.45764992097236	305.8872532448447	
3.2664966122776375	59.2703088554844	75.726282648764	-307.4253756640451	75.72628264876394	35.77687543610685	-305.0356764976253	-307.4253756640451	-305.03567649762533	349.4769481627459	
3.316750406312678	7.775672213482494	108.03147948693507	-156.07842556524764	108.03147948693513	22.330286760629875	-329.8249909161548	-156.07842556524767	-329.82499091615483	311.7227661092195	
3.367004200347719	-29.76509959450162	129.93045155575078	-31.289253417544302	129.9304515557509	115.64160164825711	-328.00175036462986	-31.28925341754426	-328.00175036462997	228.4097594284319	
3.4172579943827595	-3.4141476543632905	143.96613641409334	21.68277874982921	143.96613641409357	286.64598981003394	-290.30645672481336	21.682778749829254	-290.3064567248135	163.4050376873643	
3.4675117884178	76.48410154468405	133.75637759207726	2.3206980395263983	133.75637759207746	443.5844908070676	-209.18725048913808	2.3206980395264125	-209.1872504891382	174.2717276073402	
3.5177655824528404	126.30679437342275	78.647805346834	-41.99166317978551	78.64780534683413	487.2351920083262	-86.80777086260994	-41.99166317978552	-86.80777086261004	277.44453267268784	
3.568019376487881	67.38803744176491	-19.695418112604234	-53.422331707004254	-19.695418112604166	374.69197061757654	50.863544252881496	-53.42233170700429	50.863544252881454	431.9605583788855	
3.618273170522922	-93.44700609216548	-126.9837635817737	-9.188360016301036	-126.98376358177367	142.7402626150677	158.93936221241415	-9.188360016301097	158.9393622124142	550.8350650662843	
3.6685269645579623	-272.35611646464787	-195.2543236745197	68.08679043045511	-195.25432367451972	-112.90744524908959	198.9049785141458	68.08679043045501	198.90497851414585	542.4391240561454	
3.718780758593003	-392.8558144280398	-190.97138424494995	138.14397610866578	-190.97138424494997	-284.3795837555365	160.85806590029813	138.14397610866558	160.85806590029821	365.86046933897535	
3.7690345526280433	-448.98035463028725	-110.27455672997928	175.00299538986687	-110.27455672997924	-311.4093201233619	65.87440601085434	175.00299538986664	65.8744060108544	63.90096989122695	
3.819288346663084	-477.3646882198706	19.082641862900203	178.0902241299007	19.08264186290026	-223.8555361444241	-47.8857312097243	178.09022412990043	-47.8857312097243	-254.02149319905965	
3.8695421406981247	-482.63572181526075	148.22028602961208	162.94889468864793	148.22028602961208	-117.00637909008589	-142.04861302089373	162.9488946886477	-142.04861302089378	-470.0735663202014	
3.9197959347331652	-419.22231876452713	235.75703072889684	141.56906601947256	235.75703072889672	-66.02575337215144	-188.51820474393662	141.56906601947236	-188.5182047439367	-520.9681053450972	
3.9700497287682057	-257.4793268587703	272.62503575925535	108.51813385656217	272.6250357592552	-60.721130922463615	-174.16124159104726	108.51813385656199	-174.16124159104731	-428.13418404125923	
4.020303522803246	-48.18118215825709	268.6078167108111	49.41770166700181	268.6078167108109	-29.130184324948885	-105.6933637513166	49.41770166700166	-105.69336375131665	-273.92585654297903	
4.070557316838287	105.19816658973193	222.82108688845025	-36.02106991570125	222.82108688845003	79.67778410698622	-12.866118804419349	-36.021069915701396	-12.866118804419388	-136.72808242125842	
4.120811110873327	143.59917867359172	130.5142920038269	-125.11689921252146	130.51429200382668	243.81085996345496	59.9414508098167	-125.11689921252164	59.94145080981667	-35.45888733598238	
4.171064904908368	103.49772412829358	13.705523933337082	-187.8123240504139	13.705523933336936	391.6383686226151	76.23149817538591	-187.8123240504142	76.23149817538582	68.36261620150076	
4.221318698943409	67.80214371857986	-82.04791028930089	-206.86651477417783	-82.04791028930094	458.2889979489253	31.781021780208132	-206.8665147741781	31.78102178020799	218.3201299542172	
4.271572492978449	87.4358991365324	-126.79334926575399	-185.06564988029274	-126.79334926575393	415.15148350945844	-35.94448560968776	-185.06564988029302	-35.944485609687945	416.50048770301794	
4.32182628701349	157.6666399668913	-128.63197356961948	-142.2659390610593	-128.63197356961928	269.4925276328064	-65.1608260067297	-142.26593906105958	-65.16082600672995	622.6295723553053	
4.37208008104853	243.54150993174352	-117.82089621290216	-108.04708774178296	-117.8208962129018	67.82310947115027	-10.733977329999064	-108.04708774178323	-10.733977329999306	786.0189173208302	
4.422333875083571	307.8166368852685	-117.4328532309607	-107.61944563599982	-117.43285323096026	-96.63597269569459	119.13616363381574	-107.619445636	119.13616363381551	876.4839639886766	
4.472587669118612	323.80380038691777	-131.18971108618413	-142.98771708088472	-131.18971108618356	-112.36682392785883	267.2990815717247	-142.98771708088486	267.29908157172446	896.7378440390976	
4.522841463153652	285.3729432850587	-152.327968551975	-184.30499228040804	-152.32796855197455	72.83700231236952	373.5932961210307	-184.30499228040804	373.5932961210305	874.1262046746424	
4.573095257188693	219.63785241248743	-168.3950162657738	-185.3151740320633	-168.39501626577348	393.87755612563683	415.42489432660966	-185.31517403206317	415.42489432660943	836.9308110209258	
4.623349051223733	187.93087583426558	-148.89369370171454	-118.32857196379675	-148.89369370171437	715.1143374470273	404.7040351006534	-118.32857196379635	404.7040351006532	790.9924797371532	
4.673602845258774	259.73834217816244	-50.193885840503356	-3.6247305790053197	-50.193885840503356	945.2971222508282	358.05613145951327	-3.624730579004641	358.05613145951315	717.0787669628378	
4.723856639293815	466.61581933765564	138.97933617430377	96.78018186006341	138.9793361743036	1080.1177431101778	281.57903124776567	96.78018186006429	281.57903124776556	593.145660524696	
4.774110433328855	764.5160063113685	362.08984272714815	124.3418067132736	362.0898427271478	1137.0103006098398	183.408986280458	124.3418067132744	183.40898628045795	419.8046594904946	
4.824364227363896	1050.1422875601506	529.3127009799194	70.1115620373917	529.3127009799186	1100.9329154583177	92.79375111075727	70.11156203739218	92.79375111075721	223.81902133438518	
4.874618021398936	1243.6574648577196	593.5668276395996	-23.561381068589007	593.5668276395987	959.1960554471714	56.71819039913297	-23.56138106858897	56.718190399133015	41.46317038011857	
4.924871815433977	1354.3398829031241	575.6602020694038	-105.25284537845386	575.6602020694029	756.7615341595118	107.98183587632309	-105.25284537845418	107.98183587632315	-97.01340837632189	
4.975125609469018	1441.3070832951805	515.3734121086272	-151.11879854667376	515.3734121086266	583.0468346369302	233.0025103036958	-151.11879854667433	233.00251030369589	-173.8388989990985	
5.025379403504058	1518.2202378710156	426.6278260710381	-159.95785613215708	426.6278260710379	495.5690922187374	373.36394362537203	-159.9578561321577	373.36394362537203	-186.7471382966297	
5.075633197539099	1528.070476837359	308.4101190950032	-129.88930125946212	308.4101190950032	464.3829359373041	462.8088224747859	-129.88930125946277	462.80882247478587	-148.62607910822337	
5.125886991574139	1407.690441742599	172.37816587702304	-57.625057297740895	172.3781658770231	407.9694222732769	467.93970024017244	-57.625057297741435	467.9397002401724	-81.9354795300245	
5.17614078560918	1150.7722797995305	38.66562252347899	43.83058916071788	38.66562252347879	277.67366461202295	400.8815378739919	43.83058916071747	400.8815378739919	-10.664661689438796	
