# Stress in units of bar (10^5 Pa)
# z	Sxx	Sxy	Sxz	Syx	Syy	Syz	Szx	Szy	Szz
0.0	396.36835356715903	-286.3192182506187	205.92747369233413	-286.319218250619	-309.2102528400461	-43.06311115295557	205.92747369233376	-43.063111152955074	-37.20088700821442	
0.05025379403504058	416.6631036056634	-264.2508139990923	189.59517679569896	-264.2508139990925	-314.06027439863055	-16.433373016821633	189.59517679569842	-16.43337301682108	-42.15183835481776	
0.10050758807008116	440.36106998131726	-241.5673827820479	168.41049294739582	-241.56738278204793	-318.7349396194198	13.709784722566253	168.4104929473952	13.709784722566877	-44.63274607888285	
0.15076138210512174	464.08247487058065	-220.24658554550655	142.9153855198932	-220.24658554550638	-331.1819087172952	44.292191599544694	142.91538551989248	44.29219159954539	-46.244107759469784	
0.20101517614016232	483.80660418998366	-202.21618608236037	113.9775938960766	-202.21618608235997	-357.202551992777	72.47257866894009	113.97759389607587	72.47257866894086	-48.33890687231784	
0.2512689701752029	495.58600077343175	-188.72606317800995	82.51292805811565	-188.7260631780093	-398.70728150688103	96.08639566021272	82.51292805811488	96.08639566021347	-51.610361988967874	
0.3015227642102435	496.0492262665793	-180.01865426236924	49.338566153365946	-180.01865426236841	-452.4228033757562	113.84104804420085	49.33856615336518	113.84104804420157	-55.95860533042593	
0.35177655824528403	482.8052072922179	-175.25288329400908	15.20225585693595	-175.252883294008	-511.290701743971	125.28861750425594	15.202255856935201	125.28861750425656	-60.63672248135991	
0.40203035228032463	454.5117637480011	-172.96688610646623	-19.14893628711255	-172.96688610646498	-565.7634271533883	130.61688591631966	-19.148936287113266	130.61688591632011	-64.5774150581694	
0.45228414631536523	410.95930058395976	-171.6604328261024	-52.914518957859094	-171.660432826101	-606.696055099174	130.39466931782047	-52.91451895785974	130.39466931782073	-66.75801296236692	
0.5025379403504058	353.78079744184157	-170.63356241930435	-85.18317295737359	-170.63356241930285	-627.0324543309005	125.35835019935743	-85.18317295737414	125.35835019935746	-66.44102622881356	
0.5527917343854464	286.4187587715682	-170.19474238238573	-115.03115838337285	-170.19474238238416	-623.0818030142694	116.30303085866082	-115.03115838337331	116.30303085866058	-63.23040917922591	
0.603045528420487	214.5251996561681	-171.82407436663306	-141.61928491001424	-171.82407436663152	-594.5009047861101	104.05470605661124	-141.61928491001453	104.05470605661074	-56.984618454407126	
0.6532993224555276	145.4878484802586	-177.566753132506	-164.26981171646958	-177.56675313250457	-543.7000480373746	89.5089826446651	-164.26981171646977	89.50898264466437	-47.64706478379024	
0.7035531164905681	86.96993256764792	-189.2096693142844	-182.51375230723897	-189.20966931428316	-475.0697926430433	73.64467670537775	-182.5137523072391	73.64467670537684	-35.12598058092313	
0.7538069105256087	45.816423397604495	-207.34603882897804	-196.06335645389555	-207.34603882897693	-394.25001443012053	57.48340871033113	-196.06335645389558	57.4834087103301	-19.276728063184194	
0.8040607045606493	26.29901776990056	-231.17211323971756	-204.79395839039506	-231.17211323971668	-307.3411987634656	42.01977038346331	-204.793958390395	42.019770383462216	-0.025641823667504227	
0.8543144985956899	29.077845695837993	-258.2592636462651	-208.70364466817654	-258.2592636462644	-220.9481711813816	28.170060384204923	-208.70364466817648	28.17006038420384	22.491543296129194	
0.9045682926307305	51.28585029294322	-285.5643889687013	-207.91714838013183	-285.5643889687008	-141.67138913448895	16.74319354799286	-207.9171483801318	16.74319354799185	47.77100857135177	
0.954822086665771	87.11892654000334	-310.0009176762686	-202.75851624741205	-310.0009176762683	-76.01104183636176	8.429565123905213	-202.758516247412	8.42956512390432	74.82734273213337	
1.0050758807008116	128.89158697521873	-329.7647518011968	-193.77681827278303	-329.76475180119655	-29.919941928072262	3.8817149004033364	-193.7768182727829	3.881714900402578	102.28270162307504	
1.0553296747358523	169.16597004798712	-344.36764398840955	-181.76862888275826	-344.3676439884093	-7.803084791779554	3.778061893760734	-181.7686288827581	3.7780618937601194	128.48163638950277	
1.1055834687708928	201.5309917352482	-354.76967780530197	-167.72565750674752	-354.76967780530185	-12.468419223799515	8.767738166343651	-167.72565750674732	8.767738166343188	151.75186147830442	
1.1558372628059332	222.54198273493182	-362.73871796888824	-152.74280200147416	-362.7387179688882	-43.140947731676874	19.38657176430068	-152.74280200147382	19.386571764300335	170.64121986400878	
1.206091056840974	231.8201904255531	-370.22752591253504	-137.85335129252917	-370.227525912535	-95.5649337025722	35.875180005173235	-137.8533512925287	35.87518000517302	184.15724193687123	
1.2563448508760144	231.94029714209464	-378.65263601193544	-123.93356872434462	-378.65263601193544	-161.67894617935613	57.94936948822219	-123.93356872434403	57.94936948822209	191.92390452486765	
1.3065986449110552	227.99547375236997	-388.66279346408083	-111.63626438698651	-388.6627934640809	-230.2341712842309	84.7388007650056	-111.63626438698583	84.73880076500562	194.2399204813898	
1.3568524389460956	225.88589993829578	-400.0568276795033	-101.42290489569025	-400.0568276795034	-288.6318817257193	114.80243344535259	-101.42290489568948	114.8024334453527	192.01050394838464	
1.4071062329811361	231.19116722994144	-411.65991887018953	-93.63099485617639	-411.6599188701896	-324.8644377736646	146.2473068037879	-93.63099485617558	146.24730680378815	186.6138664645636	
1.4573600270161768	247.66337222377672	-421.8025057685355	-88.53515421855215	-421.80250576853564	-330.35247298861844	176.9888262616989	-88.5351542185513	176.98882626169924	179.6449928602353	
1.5076138210512173	276.0965517662086	-428.38245580768734	-86.32471135588133	-428.3824558076873	-301.4104605962754	204.8916608494516	-86.32471135588047	204.89166084945202	172.61136122208862	
1.557867615086258	315.01248895197153	-429.14762003198456	-86.88648924231313	-429.1476200319844	-239.8984216022743	227.88808351188925	-86.88648924231231	227.88808351188976	166.6749795669714	
1.6081214091212985	360.85883419675645	-422.2515577415512	-89.59718865499201	-422.2515577415509	-152.32947721850147	244.03194830454063	-89.59718865499123	244.03194830454112	162.4045454642672	
1.658375203156339	410.33834451216023	-406.76332691843663	-93.13571779750899	-406.7633269184364	-48.516512765587095	251.6280770593376	-93.13571779750825	251.62807705933818	159.65453627959283	
1.7086289971913797	459.8565712528148	-383.0323105547505	-95.53247592102544	-383.0323105547501	61.147761850746356	249.56113671939482	-95.5324759210248	249.56113671939534	157.53212337648392	
1.7588827912264202	508.81285757407306	-352.91269705135346	-94.45923212385486	-352.912697051353	167.86231453068183	237.6924123570251	-94.4592321238543	237.69241235702555	154.499460188343	
1.809136585261461	558.0933846576551	-319.5670636010793	-87.76016278369522	-319.567063601079	266.07551476070336	217.2885866954664	-87.76016278369477	217.2885866954668	148.57174686318032	
1.8593903792965014	609.2266728601746	-286.9835147505494	-74.00973714214499	-286.9835147505491	353.4926582391051	191.20085889557117	-74.00973714214464	191.20085889557149	137.63526624953272	
1.909644173331542	663.0500686434783	-259.1175739831881	-52.899897920799184	-259.1175739831879	431.2856610571344	163.62113383476395	-52.899897920798985	163.6211338347642	119.88066259348547	
1.9598979673665826	717.8371940154657	-238.96126458977662	-25.401226783117853	-238.9612645897766	502.384752398876	139.31388986732088	-25.401226783117764	139.3138898673211	94.23744604435927	
2.010151761401623	768.7089712531033	-228.0574808534334	6.42241044382489	-228.05748085343347	570.4636851295177	122.56590218083605	6.422410443824842	122.56590218083622	60.78890525817817	
2.0604055554366636	809.1030209916421	-225.8662735655959	39.85283003926835	-225.8662735655961	638.5660779620878	116.13181989241845	39.85283003926819	116.13181989241868	21.115563296164495	
2.1106593494717045	832.6578710184144	-230.27992940197464	71.99840541983605	-230.27992940197498	708.7573674113157	120.45464728504199	71.99840541983583	120.45464728504231	-21.59290820624048	
2.160913143506745	835.8393828665974	-237.92792201730447	100.1479969025225	-237.92792201730487	781.4079412578355	133.42595155797983	100.14799690252222	133.42595155798023	-62.74691498489466	
2.2111669375417855	819.5417496453002	-245.1218271835574	122.05635101741565	-245.12182718355785	855.3480333936889	150.81959526113593	122.05635101741544	150.8195952611364	-96.97626163133293	
2.261420731576826	788.5851156170214	-248.66250788639974	136.15477212790233	-248.6625078864002	927.8481181757888	167.29002057409147	136.1547721279021	167.29002057409207	-119.09035210120382	
2.3116745256118665	749.8995418734579	-246.42097917515787	141.73947134871236	-246.42097917515832	994.4486401824008	177.606885668073	141.73947134871221	177.60688566807363	-125.3308939785874	
2.3619283196469074	709.5556479490411	-237.54127777443793	139.1167075107593	-237.54127777443836	1048.915942718194	177.86685788475154	139.11670751075928	177.8668578847522	-114.53897274364105	
2.412182113681948	670.766597003761	-222.12354951335135	129.6461800142538	-222.12354951335178	1083.799094846155	166.27080309854298	129.64618001425384	166.27080309854364	-88.83454026324932	
2.4624359077169884	633.1128116231564	-200.91545327433968	115.53208248680646	-200.91545327434	1091.3018547791871	143.316011827585	115.5320824868066	143.31601182758558	-53.5261654530166	
2.512689701752029	593.4238715218346	-175.2199172553363	99.27883324750375	-175.2199172553366	1065.2901325342377	111.30263249598366	99.27883324750393	111.30263249598423	-16.149467156528956	
2.5629434957870694	547.478948290684	-146.78640087267772	82.93724107207885	-146.786400872678	1003.1033697223315	73.45513816771296	82.93724107207903	73.4551381677135	15.289893816155441	
2.6131972898221103	492.0911488467083	-118.26605846810084	67.3698885658796	-118.26605846810111	907.0941904572385	32.938455645945496	67.36988856587979	32.93845564594598	34.31754363362276	
2.663451083857151	426.33240723697486	-93.00586752671616	51.8120562647275	-93.00586752671633	784.997412625687	-7.8624475515076275	51.81205626472771	-7.862447551507197	37.60638040761924	
2.7137048778921913	351.8502433430533	-74.77306478644164	34.084550078345806	-74.77306478644186	648.6450804139372	-47.564838836125276	34.084550078345984	-47.564838836124885	25.801775619072394	
2.7639586719272318	272.9031214112432	-66.52472867242454	11.324401085284286	-66.52472867242477	512.1203857426252	-85.5405772550839	11.324401085284443	-85.54057725508356	3.2579549754459194	
2.8142124659622723	195.2470985581553	-69.30059435404286	-18.841388788218346	-69.30059435404308	388.16625843385884	-121.50290981093643	-18.84138878821817	-121.50290981093612	-23.092854057375124	
2.864466259997313	125.21312392956685	-81.17134786910852	-57.213782650693354	-81.1713478691087	286.4789168481011	-155.06023680792106	-57.213782650693204	-155.06023680792083	-45.480445947829935	
2.9147200540323537	68.34351793596406	-97.57138907478958	-102.27883746039322	-97.57138907478976	211.65644208137616	-185.52860581008667	-102.2788374603931	-185.5286058100865	-57.05726115657634	
2.964973848067394	27.966084095686554	-112.28899373288594	-150.14883372250378	-112.28899373288615	163.42369292642485	-212.06880669964107	-150.14883372250367	-212.0688066996409	-53.37787918547447	
3.0152276421024347	4.5128995014510025	-119.41741646007543	-195.25816616515516	-119.41741646007566	137.59538844879216	-233.89979634648486	-195.25816616515505	-233.89979634648483	-33.21129446988249	
3.065481436137475	-4.418571528082083	-115.1104932353552	-231.55594854275682	-115.11049323535542	128.13164101447316	-250.44725456285036	-231.5559485427567	-250.44725456285033	1.3700734200919484	
3.115735230172516	-3.219540338490191	-98.59761877284299	-253.90079382700407	-98.59761877284318	129.29240653958067	-261.3683748172516	-253.90079382700398	-261.36837481725166	45.743163215630354	
3.1659890242075566	3.4040987982949957	-72.39864159488032	-259.28472545495435	-72.39864159488046	136.80633101846735	-266.26408326760213	-259.28472545495435	-266.26408326760225	94.11177206285245	
3.216242818242597	10.772303485548647	-41.285976725850325	-247.572585321921	-41.28597672585043	148.05275091271656	-264.46984742044646	-247.57258532192094	-264.4698474204465	140.981765972104	
3.2664966122776375	15.649866936485111	-10.950820611931931	-221.36381791782497	-10.950820611931988	161.48947336522528	-254.9970848438468	-221.36381791782492	-254.9970848438469	182.4904468887651	
3.316750406312678	15.408853882992382	13.432880894122029	-185.16146308460986	13.432880894122007	175.37522572917067	-236.8536925306496	-185.16146308460986	-236.85369253064968	216.81889510298248	
3.367004200347719	9.077689999411184	28.26160968561949	-144.07819599052965	28.261609685619508	186.71988036508154	-209.6437589261701	-144.07819599052962	-209.64375892617016	243.74841364150313	
3.4172579943827595	-5.414257794699566	32.146724857761605	-102.54292531189232	32.146724857761626	191.06871858196922	-174.23583366405487	-102.5429253118923	-174.23583366405495	263.44041569163954	
3.4675117884178	-29.014306449711995	26.263111861119683	-63.4561420875214	26.263111861119707	183.99753708416486	-133.2347142006589	-63.456142087521414	-133.234714200659	275.0717130006361	
3.5177655824528404	-62.13404825644538	13.92961980248674	-28.091970808980143	13.92961980248677	162.58194748337212	-90.89145019790308	-28.091970808980186	-90.89145019790314	276.10028330839293	
3.568019376487881	-103.66935631994379	0.033406432549881515	3.3800417641432254	0.033406432549906384	126.94314843839335	-52.3805787667629	3.3800417641431686	-52.38057876676295	262.6896728396043	
3.618273170522922	-150.30067241690932	-10.089290530895791	31.084585403829514	-10.08929053089574	81.07377942793292	-22.565884997244666	31.084585403829433	-22.565884997244666	231.32436973398498	
3.6685269645579623	-196.61149823054666	-11.995117703034751	54.67734145312074	-11.995117703034737	32.08756181463741	-4.715236722033794	54.677341453120626	-4.715236722033808	180.88463773988087	
3.718780758593003	-235.95968840796957	-3.274102843231482	73.0502935150545	-3.2741028432314963	-11.648591677276201	0.4111848669497533	73.05029351505439	0.4111848669497391	114.36490168814866	
3.7690345526280433	-261.8441689722001	15.646835693158025	84.50709646495312	15.646835693157996	-42.6793693620081	-5.143143710995254	84.50709646495298	-5.143143710995275	39.29644355941286	
3.819288346663084	-269.2896481673178	41.48711056849069	87.33926151558238	41.48711056849066	-55.87787362539813	-17.13994838538667	87.33926151558222	-17.139948385386692	-33.39058296432458	
3.8695421406981247	-256.25444511255114	68.8607221801168	80.47250227063257	68.86072218011671	-49.653259952025095	-30.439831789625874	80.47250227063242	-30.439831789625902	-91.73416380859425	
3.9197959347331652	-224.0163969938828	91.76005915752665	63.91300274883122	91.76005915752654	-25.57286770714655	-40.45843822787544	63.913002748831055	-40.45843822787549	-125.4479960368675	
3.9700497287682057	-176.76994410224162	104.92381563051212	38.989452302003635	104.923815630512	12.35928591576058	-44.22956688322478	38.989452302003464	-44.22956688322482	-127.99123160387248	
4.020303522803246	-120.32862857864917	105.25598514749753	8.254493909185328	105.2559851474974	58.27928888707062	-40.85701799787637	8.254493909185136	-40.85701799787645	-97.43239997924505	
4.070557316838287	-61.005303985840676	92.14150763816825	-24.96466118501481	92.14150763816816	105.61754980517142	-31.06612710136279	-24.96466118501501	-31.06612710136288	-36.16577375160789	
4.120811110873327	-3.729931528056113	67.71444374909576	-57.12657556539466	67.71444374909571	148.09823976783315	-16.27434970110083	-57.12657556539487	-16.274349701100945	50.168581331523114	
4.171064904908368	48.388695253565686	35.97766597262354	-85.17284380658484	35.9776659726235	181.00062284195045	2.4275430217741416	-85.17284380658504	2.427543021774028	153.96066854462586	
4.221318698943409	94.43388802001174	1.6251191060091954	-107.03384972875736	1.6251191060091925	202.5958997232401	24.83428714172743	-107.03384972875759	24.83428714172729	266.6517936363375	
4.271572492978449	134.81984627866728	-30.57209360065312	-121.80179354891881	-30.57209360065302	215.22714728292283	51.490546870120454	-121.80179354891902	51.4905468701203	379.43993923160406	
4.32182628701349	170.87446197805633	-56.747612299453834	-129.51641879347432	-56.74761229945368	224.95248859229687	82.89588509824387	-129.5164187934745	82.8958850982437	483.8489079346782	
4.37208008104853	204.73717967704107	-73.82576770446283	-130.77850251532104	-73.82576770446259	240.6209338936132	118.58187778882709	-130.77850251532115	118.58187778882692	572.274900041481	
4.422333875083571	238.91783795006356	-79.35619550357822	-126.31348590455903	-79.35619550357796	271.09925587642084	156.48122176690603	-126.31348590455912	156.4812217669059	638.4890820090027	
4.472587669118612	277.0177813334458	-71.48542065445898	-116.78242391865285	-71.48542065445866	322.26098465800476	193.03066694776876	-116.78242391865284	193.03066694776865	678.0888879022964	
4.522841463153652	323.51179516372713	-48.77711244106223	-102.93056484922698	-48.77711244106197	394.9816853491914	223.99525651251315	-102.93056484922691	223.99525651251304	688.8048018098807	
4.573095257188693	383.0621442479809	-10.715164019136552	-85.97397564534866	-10.71516401913641	483.9008065040372	245.79015468239092	-85.97397564534853	245.79015468239078	670.5502453796555	
4.623349051223733	459.5474632014332	41.47854552216363	-67.87522533875602	41.478545522163714	578.6515876980768	256.6984762310059	-67.8752253387558	256.69847623100577	625.3243758231363	
4.673602845258774	554.3805057774539	104.43486749110131	-51.1821926144111	104.43486749110136	666.2923425941351	257.6045105460641	-51.18219261441085	257.60451054606403	557.0781978992186	
4.723856639293815	665.1654196028676	172.14647211620115	-38.440892323568555	172.14647211620104	734.3954040865594	251.84720584164052	-38.44089232356832	251.84720584164046	471.55441673680855	
4.774110433328855	785.6279642382974	236.87633348454608	-31.311638156672004	236.87633348454588	773.805596804829	244.22299995980447	-31.311638156671805	244.22299995980444	375.98692695059754	
4.824364227363896	905.9891470982669	290.22050518799034	-29.765367782085306	290.22050518798994	780.4259736633369	239.50291116659633	-29.765367782085196	239.50291116659633	278.5607508500297	
4.874618021398936	1014.5914692800502	324.691051762207	-31.747908155193812	324.6910517622066	755.063737665874	240.8583529001347	-31.747908155193777	240.85835290013472	187.61747948642724	
4.924871815433977	1099.8558460138584	335.31770794537954	-33.60447297470363	335.31770794537914	702.372854246878	248.7964168410201	-33.60447297470369	248.7964168410201	110.5953971978754	
4.975125609469018	1152.4517915834026	320.3972843381578	-31.02642934381057	320.39728433815736	629.4382003494736	260.95186723033913	-31.02642934381074	260.9518672303391	53.09040202551756	
5.025379403504058	1166.732175803466	281.8029450967319	-20.199240038113665	281.8029450967315	543.6519598724977	272.8018749203451	-20.19924003811392	272.8018749203451	18.119753800565164	
5.075633197539099	1142.2275218005036	224.4599766048758	1.2133821008563572	224.45997660487552	451.96204202654974	279.1067860617911	1.2133821008560375	279.1067860617911	5.915715000714883	
5.125886991574139	1083.6901222659767	155.4546585181941	33.56105192564066	155.4546585181937	360.0989473615779	275.5011729690943	33.561051925640314	275.5011729690942	14.190616056974914	
5.17614078560918	1000.5235866943692	83.09040722018176	75.29534434152991	83.0904072201813	272.8766219968133	259.7400597104832	75.29534434152957	259.74005971048314	38.65893580152119	
5.226394579644221	904.9424510309127	15.586351685816595	123.4199628250201	15.586351685816027	194.09547419407892	232.18978917890593	123.41996282501978	232.18978917890584	73.74825021174644	
